ECG,EDA,RR
32576,20330,41100
32600,20344,40735
32644,20400,41008
32684,20444,41116
32696,20457,40632
32720,20472,40888
32741,20453,40956
32736,20422,40940
32756,20361,40760
32712,20333,40804
32668,20333,40769
32696,20352,40647
32744,20370,40707
32722,20418,40570
32628,20461,40583
32661,20455,40600
32752,20444,40436
32720,20431,40506
32608,20363,40423
32568,20330,40582
32604,20286,40223
32632,20338,40292
32672,20381,40308
32700,20419,40256
32740,20454,40334
32692,20436,39885
32692,20427,40039
32658,20385,40031
32664,20347,40055
32632,20311,39937
32612,20315,40108
32664,20316,39790
32692,20344,39914
32733,20405,40007
32788,20422,39508
32824,20441,39700
32817,20415,39736
32714,20374,39732
32532,20343,39748
32508,20293,39300
32569,20295,39544
32641,20298,39489
32704,20341,39524
32736,20394,39621
32724,20445,39362
32732,20419,39431
32730,20404,39496
32696,20384,39054
32648,20319,39192
32608,20300,39289
32624,20292,39240
32612,20288,39095
32656,20334,39137
32696,20370,39136
32728,20397,39076
32757,20420,39054
32741,20409,39140
32717,20387,38914
32712,20315,38957
32696,20292,38860
32672,20264,39013
32632,20284,38791
32697,20334,38833
32756,20351,38823
32728,20404,38703
32561,20392,38693
32513,20393,38856
32550,20353,38703
32552,20325,38372
32576,20262,38644
32584,20262,38652
32624,20285,38681
32656,20300,38452
32708,20348,38556
32764,20397,38482
32776,20385,38439
32748,20380,38501
32694,20329,38583
32604,20294,38164
32584,20275,38340
32609,20241,38312
32640,20263,38396
32684,20311,38404
32688,20341,38045
32736,20384,38238
32780,20376,38252
32804,20367,38316
32792,20356,38380
32741,20284,38265
32624,20255,38157
32508,20229,38244
32564,20258,38253
32669,20292,38360
32736,20317,38221
32648,20359,38324
32626,20361,38188
32660,20344,38185
32636,20320,38101
32644,20265,38044
32622,20239,38077
32628,20251,38037
32657,20232,38151
32671,20276,37813
32690,20332,38048
32689,20336,38204
32732,20359,37973
32788,20357,38045
32756,20333,38076
32740,20253,37947
32733,20238,37983
32677,20207,37977
32608,20225,37983
32652,20279,38053
32704,20295,37682
32800,20341,37956
32860,20341,37798
32869,20340,37770
32804,20284,37797
32708,20244,37540
32688,20221,37711
32733,20189,37745
32772,20216,37759
32788,20268,37783
32672,20293,37684
32620,20337,37700
32696,20331,37340
32764,20327,37672
32756,20273,37561
32752,20254,37588
32728,20207,37461
32686,20182,37343
32728,20201,37460
32820,20228,37271
32912,20292,37334
32900,20343,37420
32856,20329,37327
32838,20320,37294
32698,20261,37156
32648,20230,37156
32636,20205,37292
32648,20168,36893
32680,20195,37044
32696,20220,37028
32705,20273,37072
32688,20325,37103
32708,20309,37017
32740,20303,36983
32744,20278,36913
32680,20207,36948
32663,20180,37032
32692,20196,36904
32712,20176,36925
32732,20223,36752
32792,20247,36780
32844,20292,36800
32832,20317,36812
32804,20276,36893
32836,20244,36599
32852,20223,36645
32800,20164,36695
32760,20164,36717
32768,20196,36768
32800,20197,36567
32856,20247,36639
32924,20298,36661
32920,20285,36640
32876,20279,36604
32829,20245,36525
32808,20227,36345
32804,20148,36487
32812,20150,36500
32830,20148,36524
32852,20188,36608
32864,20240,36501
32897,20260,36561
32864,20278,36216
32792,20279,36463
32792,20223,36372
32808,20178,36416
32852,20159,36447
32868,20126,36173
32813,20140,36292
32927,20189,36271
33012,20239,36468
33064,20274,36359
32960,20267,36405
32816,20261,36332
32789,20236,36387
32828,20167,36276
32876,20141,36384
32925,20116,36271
32940,20133,36353
32988,20172,35969
33016,20212,36156
33048,20256,36127
33066,20280,36076
33036,20251,36077
32992,20225,36108
32924,20158,36219
32894,20138,36023
32852,20131,36076
32864,20163,36042
32968,20153,36121
33036,20205,35940
33100,20257,36004
33140,20242,36015
33000,20252,35760
32760,20193,35943
32704,20156,36008
32708,20136,35663
32716,20119,35792
32720,20129,35758
32732,20144,35801
32776,20203,35756
32796,20221,35716
32812,20256,35652
32864,20236,35657
32844,20203,35684
32832,20144,35637
32776,20142,35684
32764,20104,35432
32776,20133,35543
32832,20138,35640
32876,20205,35296
32948,20235,35417
32960,20247,35427
32928,20214,35415
32885,20189,35444
32806,20132,35132
32724,20112,35256
32718,20103,35228
32737,20098,35286
32748,20143,35305
32808,20165,35047
32804,20222,35175
32800,20244,35129
32769,20204,35142
32748,20185,35239
32784,20123,34988
32764,20103,35004
32652,20112,34840
32644,20085,34941
32668,20129,34928
32704,20197,34984
32824,20196,35015
32830,20213,34845
32809,20197,34900
32764,20165,34859
32737,20141,34905
32704,20093,34932
32736,20077,34662
32728,20076,34801
32814,20109,34896
32868,20172,34587
32884,20180,34705
32868,20209,34686
32852,20180,34662
32884,20162,34639
32956,20101,34689
33092,20079,34681
33272,20049,34677
33530,20076,34647
33868,20097,34663
34196,20158,34756
34628,20171,34470
35252,20197,34588
35928,20213,34560
36580,20136,34628
37276,20108,34628
37908,20056,34461
38368,20058,34560
38684,20055,34604
38752,20105,34596
38608,20133,34489
38240,20184,34557
37564,20222,34572
36636,20181,34649
35392,20167,34344
33772,20087,34520
31940,20060,34468
30392,20044,34599
29688,20063,34445
29576,20074,34532
29736,20133,34588
30028,20161,34412
30364,20191,34488
30744,20166,34564
31045,20128,34392
31124,20097,34467
31264,20036,34341
31508,20033,34436
31828,20050,34205
32080,20063,34384
32224,20115,34472
32268,20154,34196
32276,20149,34252
32288,20153,34244
32284,20114,34322
32240,20081,34368
32204,20027,34095
32220,20020,34205
32265,20019,34167
32288,20056,34264
32352,20108,34332
32392,20163,34134
32440,20136,33983
32452,20125,34204
32456,20100,34209
32448,20064,34125
32452,20014,33934
32464,19990,34119
32497,20022,34214
32544,20053,34016
32608,20080,34069
32640,20119,34086
32534,20144,34100
32440,20139,34053
32432,20081,33983
32448,20047,34070
32480,20025,34117
32489,19983,34075
32524,20015,34140
32596,20023,34069
32692,20082,33972
32712,20102,33993
32724,20125,34068
32725,20128,34036
32704,20084,34017
32708,20034,33937
32724,20000,34036
32704,20005,34009
32736,19990,34013
32776,20037,34046
32812,20086,34005
32868,20094,33740
32876,20116,33911
32824,20124,33991
32748,20063,33744
32736,20026,33860
32788,19983,33862
32864,19975,33643
32916,19997,33777
32885,20001,33868
32856,20060,33596
32976,20084,33824
33017,20105,33744
33044,20117,33806
33036,20054,33484
32984,20023,33636
32924,19965,33600
32908,19959,33604
32876,19964,33576
32928,20002,33543
33016,20064,33541
33116,20069,33373
33120,20095,33439
33097,20098,33292
33020,20044,33329
33012,20004,33135
33016,19981,33313
33029,19940,33080
33108,19957,33165
33084,19989,33140
33120,20044,33132
33156,20075,33164
33192,20074,33071
33200,20084,33100
33160,20031,32785
33172,19992,32940
33168,19966,32980
33216,19931,32743
33253,19948,32788
33284,19999,32844
33284,20015,32630
33336,20055,32799
33412,20072,32775
33464,20049,32657
33456,20030,32756
33384,19988,32673
33248,19961,32770
33156,19941,32766
33229,19929,32614
33357,19961,32636
33480,20012,32612
33516,20053,32462
33444,20048,32366
33348,20041,32544
33316,20015,32428
33288,19975,32550
33272,19948,32341
33301,19902,32439
33300,19924,32379
33312,19960,32318
33312,19986,32356
33308,20036,32292
33241,20043,32301
33240,20044,32297
33207,20009,32216
33148,19985,31999
33084,19911,32077
33076,19902,32109
33056,19937,32108
33068,19950,32119
33090,20009,32042
33096,20029,32076
33088,20046,31964
33052,20017,31975
32980,20005,31881
32824,19939,31737
32568,19910,31809
32532,19908,31725
32524,19931,31574
32504,19921,31692
32484,19973,31692
32480,20011,31497
32460,20041,31655
32404,20012,31481
32392,19980,31555
32336,19932,31612
32304,19907,31336
32288,19876,31373
32272,19884,31325
32244,19934,31367
32254,19956,31198
32272,20003,31292
32252,20017,31200
32217,20002,31284
32184,19966,31332
32188,19928,31229
32194,19920,31260
32152,19869,31005
32128,19887,31076
32009,19900,30927
32032,19951,31161
32100,20020,31063
32148,20008,31113
32180,20011,31029
32096,19953,31055
31936,19916,30808
31954,19897,30935
32016,19861,30940
32066,19855,30958
32116,19893,30876
32160,19929,30753
32180,19991,30808
32192,20002,30748
32184,19978,30816
32192,19959,30703
32148,19924,30748
32160,19863,30685
32184,19855,30780
32193,19852,30740
32224,19897,30788
32252,19939,30783
32300,19960,30598
32304,19987,30729
32272,19981,30801
32240,19934,30554
32184,19897,30629
32216,19873,30610
32256,19834,30708
32316,19850,30696
32364,19887,30557
32384,19912,30683
32417,19954,30753
32392,19981,30551
32390,19954,30583
32436,19935,30532
32445,19917,30652
32445,19858,30525
32476,19852,30660
32464,19828,30688
32508,19872,30465
32520,19901,30612
32508,19948,30509
32456,19975,30631
32420,19950,30693
32412,19934,30625
32352,19869,30661
32365,19848,30478
32388,19830,30597
32460,19819,30493
32508,19851,30624
32516,19902,30445
32468,19965,30564
32540,19954,30519
32574,19943,30564
32568,19920,30612
32483,19858,30369
32381,19834,30528
32421,19812,30607
32532,19836,30396
32584,19841,30359
32516,19876,30508
32424,19921,30575
32436,19956,30317
32524,19929,30493
32588,19892,30383
32567,19865,30486
32561,19838,30316
32560,19791,30428
32576,19794,30436
32545,19844,30466
32513,19877,30359
32496,19922,30256
32512,19924,30380
32552,19922,30314
32520,19898,30388
32516,19841,30175
32512,19802,30304
32498,19803,30387
32500,19800,30126
32536,19815,30196
32564,19876,30245
32608,19912,30266
32608,19913,30191
32608,19905,30321
32610,19877,30164
32592,19843,30090
32560,19805,30225
32532,19788,30127
32480,19780,30160
32468,19807,30196
32484,19861,30104
32508,19900,30109
32544,19901,30178
32600,19909,30128
32616,19888,30228
32484,19818,30016
32377,19792,30117
32416,19780,30165
32464,19764,30000
32568,19793,30152
32644,19841,30215
32632,19895,30074
32484,19935,30004
32480,19887,30077
32478,19872,30181
32460,19826,30003
32468,19798,30164
32472,19749,30124
32468,19751,30249
32504,19803,30044
32510,19833,30036
32544,19875,30196
32602,19924,30225
32584,19872,30132
32568,19856,30046
32536,19808,30233
32544,19791,30253
32548,19737,30166
32552,19747,30092
32572,19778,30276
32640,19832,30209
32676,19854,30341
32696,19872,30340
32696,19865,30212
32672,19839,30190
32664,19805,30382
32632,19772,30380
32656,19723,30462
32640,19746,30317
32636,19780,30471
32660,19798,30452
32700,19844,30501
32722,19877,30409
32704,19853,30479
32676,19837,30494
32653,19777,30439
32645,19741,30625
32705,19720,30668
32790,19743,30493
32829,19753,30656
32748,19793,30761
32612,19833,30561
32660,19868,30727
32713,19841,30812
32694,19817,30624
32656,19782,30804
32656,19756,30900
32628,19709,30764
32664,19725,30913
32744,19746,30872
32740,19800,31031
32692,19821,30825
32700,19856,30983
32698,19849,31106
32724,19805,30928
32708,19771,31078
32692,19740,31101
32792,19717,31041
32872,19716,31225
32852,19751,31162
32854,19769,31069
32752,19812,31197
32704,19837,31212
32740,19852,31113
32760,19795,31245
32754,19750,31298
32716,19719,31134
32700,19712,31248
32712,19719,31312
32754,19718,31108
32764,19778,31212
32832,19812,31196
32854,19845,31316
32876,19817,31328
32864,19798,31217
32816,19764,31318
32816,19703,31397
32824,19689,31125
32820,19710,31316
32848,19704,31360
32864,19774,31188
32833,19812,31300
32796,19809,31396
32768,19822,31118
32768,19807,31304
32808,19733,31341
32812,19697,31183
32824,19685,31306
32800,19699,31239
32804,19698,31221
32824,19745,31300
32892,19796,31213
32900,19799,31260
32864,19794,31173
32832,19785,31296
32776,19732,31194
32732,19697,31385
32717,19685,31161
32728,19663,31303
32760,19692,31285
32876,19736,31357
32920,19783,31196
32860,19816,31188
32828,19781,31320
32776,19755,31377
32752,19718,31241
32768,19686,31185
32772,19673,31400
32756,19648,31305
32757,19675,31495
32812,19730,31303
32840,19766,31268
32884,19803,31453
32852,19805,31386
32828,19752,31560
32780,19711,31385
32712,19686,31535
32672,19641,31475
32708,19656,31614
32780,19680,31460
32860,19725,31614
32944,19788,31574
33002,19773,31707
33072,19773,31557
33036,19753,31492
32844,19716,31693
32652,19652,31746
32636,19626,31749
32692,19639,31593
32752,19664,31756
32820,19708,31700
32852,19750,31804
32860,19767,31720
32873,19772,31645
32888,19748,31815
32844,19706,31921
32828,19645,31750
32820,19636,31887
32828,19628,31823
32796,19682,31911
32780,19685,31928
32814,19743,31836
32856,19760,31918
32876,19744,31973
32909,19725,32038
32970,19687,31876
32960,19639,31998
32924,19613,32046
32840,19625,32057
32756,19632,32100
32772,19688,32080
32832,19740,32039
32852,19744,32010
32902,19749,32129
32925,19708,32068
32856,19680,32178
32788,19653,32301
32805,19600,32240
32858,19612,32231
32885,19650,32149
32872,19670,32316
32868,19718,32410
32868,19765,32154
32848,19732,32332
32868,19719,32376
32896,19668,32436
32904,19660,32500
32869,19595,32440
32900,19591,32396
32948,19628,32542
32964,19672,32657
32946,19726,32476
32860,19753,32612
32821,19763,32584
32864,19694,32710
32864,19676,32501
32860,19628,32692
32868,19589,32705
32884,19608,32799
32932,19644,32905
32945,19658,32632
32925,19709,32804
32900,19716,32788
32868,19730,32825
32808,19714,32909
32756,19646,32973
32740,19619,33096
32756,19607,32840
32728,19580,33151
32740,19621,32868
32792,19646,33181
32784,19702,33031
32768,19741,33113
32780,19705,33148
32756,19695,33213
32704,19673,33288
32685,19604,33074
32672,19587,33237
32672,19620,33220
32696,19606,33327
32752,19652,33388
32812,19703,33260
32772,19711,33376
32800,19716,33429
32792,19700,33239
32768,19637,33437
32796,19617,33584
32812,19584,33425
32732,19604,33341
32592,19604,33507
32609,19656,33636
32652,19680,33644
32680,19716,33695
32640,19712,33689
32660,19717,33705
32644,19644,33815
32620,19615,33548
32648,19568,33692
32652,19577,33712
32552,19612,33826
32544,19633,33928
32600,19678,33785
32656,19708,33862
32654,19728,33903
32648,19679,34005
32628,19640,34082
32600,19596,33876
32652,19564,34040
32686,19571,34092
32784,19614,34183
32844,19629,34149
32836,19674,34125
32744,19709,34223
32605,19692,34196
32604,19675,34280
32676,19652,34424
32768,19591,34159
32848,19584,34493
32932,19574,34412
33032,19607,34471
33164,19625,34351
33348,19673,34444
33576,19693,34557
33866,19695,34484
34180,19690,34449
34576,19630,34438
35180,19613,34421
35808,19565,34316
36452,19564,34498
37244,19592,34473
37944,19620,34526
38484,19673,34477
38812,19692,34564
38816,19706,34660
38644,19701,34455
38176,19628,34519
37440,19616,34524
36568,19574,34549
35413,19581,34636
33872,19588,34656
32124,19646,34636
30644,19673,34618
29844,19687,34684
29660,19697,34703
29718,19680,34724
29912,19620,34586
30244,19592,34668
30628,19556,34637
30998,19549,34743
31252,19588,34743
31504,19652,34694
31824,19671,34729
32100,19700,34805
32200,19688,34516
32266,19675,34644
32293,19620,34720
32304,19591,34765
32316,19552,34780
32208,19565,34524
32072,19599,34655
32136,19626,34717
32248,19651,34751
32356,19689,34790
32364,19676,34759
32276,19665,34812
32172,19632,34628
32174,19572,34749
32244,19553,34737
32324,19582,34749
32376,19569,34839
32448,19623,34749
32496,19681,34693
32540,19692,34644
32568,19707,34700
32544,19666,34624
32532,19641,34732
32472,19591,34714
32440,19569,34729
32488,19546,34855
32518,19598,34532
32557,19620,34794
32618,19671,34645
32656,19709,34749
32685,19683,34856
32708,19668,34756
32660,19615,34781
32628,19593,34732
32624,19556,34552
32616,19555,34756
32620,19586,34629
32648,19636,34645
32692,19665,34624
32717,19707,34657
32720,19685,34728
32728,19668,34669
32700,19617,34604
32700,19584,34596
32720,19564,34631
32768,19546,34717
32812,19583,34400
32826,19612,34552
32836,19660,34604
32848,19679,34551
32820,19693,34632
32797,19682,34286
32792,19619,34417
32808,19589,34366
32881,19548,34348
32972,19560,34344
33004,19614,34384
33032,19634,34356
33044,19682,34344
33032,19679,34334
32996,19694,34336
32952,19660,34301
32941,19637,34276
32961,19589,34276
32960,19588,34206
32980,19569,34128
33049,19604,34161
33144,19620,34209
33232,19685,34129
33276,19684,34151
33272,19700,34096
33196,19665,34064
33080,19631,33993
33080,19629,33956
33144,19561,33945
33164,19559,33972
33232,19601,33988
33220,19634,33927
33260,19702,33872
33336,19697,33826
33373,19695,33893
33376,19684,33904
33344,19630,33753
33336,19592,33842
33288,19592,33673
33309,19572,33769
33404,19584,33694
33472,19635,33756
33532,19685,33754
33584,19693,33766
33532,19718,33720
33456,19676,33769
33444,19654,33816
33464,19598,33732
33476,19591,33777
33493,19583,33494
33520,19595,33612
33544,19641,33545
33558,19676,33586
33564,19719,33584
33534,19705,33524
33524,19693,33414
33504,19642,33571
33476,19620,33468
33456,19600,33543
33448,19578,33508
33440,19615,33527
33456,19644,33527
33456,19692,33476
33460,19740,33497
33436,19712,33457
33376,19708,33542
33292,19657,33240
33172,19619,33380
33056,19636,33196
32984,19596,33493
32950,19636,33399
32984,19654,33400
32886,19717,33353
32833,19742,33172
32788,19728,33468
32720,19711,33189
32648,19684,33284
32600,19627,33265
32500,19620,33338
32496,19597,33167
32464,19642,33392
32480,19666,33332
32506,19733,33237
32520,19758,33247
32472,19785,33183
32442,19728,33319
32336,19678,33319
32264,19657,33415
32240,19612,33310
32288,19621,33208
32400,19683,33172
32504,19687,33181
32496,19722,33029
32324,19759,33269
32188,19759,33197
32164,19744,33284
32168,19690,33165
32192,19673,33181
32177,19629,33110
32184,19633,33164
32244,19676,32854
32304,19702,33119
32324,19764,32985
32286,19780,32959
32292,19792,32908
32260,19752,32912
32253,19730,32624
32241,19698,32701
32248,19649,32660
32320,19658,32689
32352,19672,32752
32368,19731,32420
32440,19781,32519
32468,19784,32492
32460,19805,32520
32432,19775,32570
32356,19741,32437
32328,19685,32393
32380,19673,32360
32440,19695,32408
32460,19697,32276
32456,19745,32192
32496,19806,32105
32510,19805,32154
32524,19823,32150
32508,19789,32100
32464,19760,32041
32388,19709,32007
32344,19695,31941
32336,19678,31941
32332,19724,31833
32408,19748,31842
32436,19811,31765
32464,19826,31814
32476,19845,31759
32528,19814,31818
32620,19767,31740
32712,19743,31829
32704,19733,31751
32492,19702,31700
32404,19736,31780
32281,19764,31786
32280,19815,31609
32368,19856,31702
32396,19838,31709
32400,19833,31709
32376,19784,31704
32408,19759,31538
32396,19740,31560
32437,19713,31516
32480,19760,31580
32520,19778,31538
32568,19841,31564
32544,19855,31572
32516,19876,31528
32476,19834,31588
32444,19820,31468
32484,19754,31468
32480,19742,31296
32476,19724,31337
32520,19764,31236
32628,19788,31263
32716,19847,31239
32772,19860,31263
32752,19881,31184
32672,19844,31213
32604,19820,31217
32592,19768,31136
32620,19760,31155
32616,19760,30900
32580,19760,30973
32485,19815,30857
32476,19877,30839
32528,19879,30776
32548,19906,30836
32520,19865,30638
32532,19835,30740
32597,19777,30567
32648,19761,30629
32620,19791,30543
32580,19775,30605
32540,19828,30533
32477,19856,30540
32588,19904,30392
32652,19896,30429
32632,19892,30316
32476,19859,30361
32357,19793,30252
32365,19776,30267
32392,19761,30141
32460,19800,30356
32492,19829,30245
32494,19881,30296
32516,19898,30193
32584,19911,30061
32592,19904,29958
32580,19853,30079
32532,19831,30053
32549,19781,30030
32568,19788,29972
32629,19804,29937
32653,19846,29770
32636,19911,29862
32572,19914,29853
32468,19921,29660
32480,19916,29732
32549,19865,29630
32520,19835,29686
32444,19836,29698
32361,19813,29480
32408,19836,29500
32508,19864,29395
32589,19927,29485
32586,19933,29486
32628,19951,29285
32644,19921,29329
32600,19881,29178
32560,19853,29292
32520,19836,29297
32548,19808,29212
32572,19851,29220
32648,19877,29149
32681,19926,29157
32696,19968,28917
32700,19954,28935
32609,19945,28858
32524,19917,28929
32494,19856,28804
32521,19845,28904
32580,19845,28935
32620,19852,28730
32632,19897,28769
32656,19943,28814
32724,19961,28679
32716,19972,28692
32636,19957,28818
32612,19931,28596
32620,19865,28734
32652,19844,28620
32608,19848,28585
32512,19887,28708
32500,19906,28620
32576,19969,28551
32528,19982,28656
32568,20002,28636
32604,19966,28686
32620,19946,28631
32628,19908,28545
32620,19866,28628
32608,19852,28751
32636,19889,28569
32620,19941,28630
32620,19969,28588
32612,20021,28680
32632,20005,28612
32668,19996,28756
32640,19943,28643
32632,19908,28802
32600,19876,28849
32512,19893,28731
32556,19927,28792
32600,19935,28757
32641,19991,28948
32660,20036,28937
32596,20016,28857
32568,20015,28940
32516,19955,28913
32485,19932,29079
32496,19909,29131
32492,19880,29030
32500,19911,29190
32562,19961,29079
32634,20036,29263
32672,20023,29321
32680,20038,29188
32678,20033,29373
32676,19967,29431
32608,19926,29304
32580,19916,29477
32584,19924,29553
32600,19913,29496
32612,19957,29612
32657,20017,29678
32696,20060,29572
32604,20043,29740
32532,20039,29860
32528,20009,29713
32548,19989,29913
32624,19910,29921
32588,19929,29866
32540,19959,30063
32504,19969,30188
32516,20026,30009
32521,20074,30140
32556,20054,30349
32580,20044,30215
32600,20021,30412
32648,19956,30559
32714,19931,30441
32724,19926,30443
32604,19956,30593
32568,19999,30819
32660,20037,30680
32704,20069,30799
32764,20085,30837
32800,20080,31032
32724,20015,31168
32630,19977,30978
32624,19973,31224
32672,19943,31124
32702,19981,31389
32726,20002,31265
32708,20053,31436
32712,20096,31558
32704,20087,31668
32652,20084,31789
32577,20051,31625
32532,19986,31880
32520,19964,31833
32520,19951,31980
32532,19989,32003
32520,20028,32197
32552,20058,32321
32552,20096,32164
32505,20118,32345
32541,20085,32469
32572,20057,32422
32580,19999,32623
32617,19975,32588
32613,19981,32768
32640,19987,32768
32685,20028,32805
32700,20092,32972
32741,20105,33052
32708,20129,33124
32660,20087,33255
32648,20064,33064
32592,20051,33279
32584,19982,33447
32641,19991,33505
32660,19993,33641
32720,20048,33491
32805,20098,33687
32844,20133,33756
32804,20120,33744
32764,20117,33916
32756,20059,34052
32724,20037,33937
32708,20006,34114
32732,19983,34257
32760,20007,34148
32776,20056,34303
32820,20086,34300
32849,20130,34461
32824,20122,34596
32808,20124,34607
32806,20074,34711
32736,20048,34743
32676,20007,34859
32645,20007,34796
32648,20007,34928
32788,20057,34989
32868,20090,35066
32864,20135,35157
32862,20155,35248
32844,20108,35415
32768,20088,35377
32616,20036,35449
32528,20018,35516
32528,19997,35568
32620,20024,35649
32712,20053,35463
32792,20111,35710
32760,20156,35769
32664,20137,35836
32544,20134,35888
32524,20081,35948
32532,20053,36061
32608,20053,36178
32624,20018,36353
32604,20042,36103
32644,20063,36386
32744,20127,36400
32801,20137,36513
32812,20159,36700
32796,20149,36734
32708,20088,36929
32588,20053,36884
32444,20030,37052
32440,20007,37031
32465,20037,37241
32524,20092,36942
32596,20106,37255
32676,20152,37438
32732,20169,37471
32785,20124,37673
32769,20107,37423
32648,20055,37601
32501,20020,37735
32520,20017,37592
32592,20055,37932
32620,20069,37991
32684,20130,38132
32676,20164,38308
32664,20164,38300
32700,20140,38374
32656,20123,38404
32644,20057,38582
32660,20025,38633
32717,20036,38676
32828,20034,38716
32912,20089,38832
32965,20150,38996
33000,20152,39077
33068,20161,39104
33172,20159,39241
33160,20128,39412
33152,20062,39316
33312,20038,39464
33524,20020,39649
33760,20059,39364
34076,20100,39671
34388,20119,39823
34736,20156,39844
35224,20172,39941
35816,20147,40132
36422,20116,40080
36884,20095,40092
37268,20040,40316
37573,20048,40280
37702,20080,40285
37584,20090,40394
37329,20161,40496
36848,20170,40676
36196,20192,40334
35372,20150,40659
34188,20128,40740
32948,20121,40820
31712,20044,41048
30776,20041,40747
30452,20087,40980
30506,20095,41064
30456,20148,41136
30456,20164,41366
30568,20181,40896
30728,20173,41280
30992,20122,41416
31332,20097,41420
31596,20048,41636
31760,20045,41215
31944,20071,41590
32160,20093,41749
32317,20146,41692
32376,20184,41704
32404,20172,41964
32408,20171,41903
32364,20127,41908
32386,20077,42119
32424,20059,41717
32448,20036,42008
32564,20070,42103
32708,20100,42228
32784,20156,42421
32773,20162,41998
32704,20197,42469
32668,20163,42117
32484,20127,42503
32344,20100,42237
32304,20060,42660
32352,20066,42631
32432,20074,42724
32516,20124,42508
32592,20141,42718
32632,20194,42759
32652,20176,42844
32664,20178,42921
32644,20132,42902
32636,20104,42959
32652,20065,42924
32640,20042,42985
32620,20070,42820
32672,20114,42920
32752,20133,42860
32808,20181,42949
32880,20181,43029
32848,20189,42973
32792,20164,43004
32736,20104,42622
32733,20089,42921
32776,20049,42932
32776,20084,42980
32812,20112,43015
32840,20146,42961
32842,20182,42996
32868,20209,42588
32884,20168,42951
32837,20134,42848
32828,20099,42975
32836,20079,42757
32877,20047,42944
32864,20080,42820
32950,20119,42960
33020,20143,42951
33092,20180,42934
33156,20199,42968
33176,20173,43015
33173,20136,42948
33125,20093,42964
32964,20064,42887
32816,20065,43006
32852,20065,43039
32900,20119,42980
32938,20176,43015
32996,20184,43002
33016,20222,42983
33044,20168,42916
33024,20148,42916
33038,20132,43012
33072,20079,42941
33088,20086,42740
33124,20064,43088
33164,20117,42759
33208,20142,43133
33256,20196,43072
33278,20188,43044
33276,20189,43015
33252,20136,42999
33236,20098,43048
33248,20057,42984
33217,20060,43060
33200,20064,42825
33261,20112,43204
33340,20148,43209
33414,20188,43084
33464,20208,43055
33484,20169,43068
33436,20148,42901
33256,20094,43228
33220,20068,42911
33284,20069,43221
33312,20114,43064
33332,20100,43260
33400,20163,43245
33456,20225,43271
33494,20199,43244
33517,20198,43284
33496,20140,43268
33468,20110,43292
33405,20105,43284
33324,20066,43279
33300,20070,43271
33312,20117,43248
33360,20176,43253
33368,20198,43260
33348,20239,43240
33304,20194,43248
33224,20169,43247
33208,20103,43180
33200,20084,43068
33180,20060,43062
33188,20077,43116
33204,20114,42927
33205,20169,43020
33100,20212,42782
33033,20202,43143
33012,20172,43102
32960,20153,43109
32836,20127,42936
32780,20084,43052
32760,20076,43010
32729,20079,42993
32768,20133,42913
32772,20158,42823
32708,20204,42887
32600,20196,42880
32425,20190,42882
32380,20168,42829
32348,20101,42649
32352,20073,42783
32348,20077,42768
32348,20074,42352
32329,20130,42614
32388,20150,42536
32384,20195,42629
32316,20215,42528
32284,20177,42453
32208,20145,42404
32156,20100,42375
32134,20071,42452
32160,20058,42389
32176,20077,42328
32180,20105,42005
32208,20158,42212
32186,20209,42173
32228,20204,42118
32217,20197,42095
32164,20144,42093
32128,20116,42112
32148,20098,42072
32192,20068,42093
32196,20092,41997
32240,20124,42072
32284,20164,41780
32260,20180,41817
32228,20210,41924
32233,20177,41744
32220,20153,41697
32233,20098,41622
32260,20076,41709
32244,20055,41492
32228,20073,41368
32237,20108,41008
32292,20165,41312
32420,20185,41210
32460,20201,41169
32385,20209,41149
32364,20151,41109
32340,20117,41118
32356,20056,40900
32388,20065,40904
32369,20093,40938
32360,20109,40789
32376,20169,40853
32412,20176,40692
32436,20196,40619
32469,20196,40583
32500,20137,40521
32544,20114,40583
32564,20063,40423
32632,20055,40480
32636,20061,40293
32464,20106,40341
32376,20165,40213
32360,20175,40220
32440,20201,40116
32492,20169,40052
32428,20151,39996
32388,20085,39926
32352,20056,39927
32360,20073,39863
32408,20056,39796
32460,20102,39780
32484,20135,39749
32497,20165,39773
32520,20192,39570
32545,20165,39604
32548,20142,39669
32493,20083,39172
32440,20060,39342
32434,20050,39532
32438,20052,39116
32500,20094,39261
32536,20141,39381
32564,20161,39143
32604,20178,39175
32637,20177,39249
32584,20159,38968
32568,20085,38982
32566,20054,39061
32556,20050,38848
32532,20084,38901
32552,20082,38977
32581,20132,38684
32660,20176,38769
32680,20170,38640
32632,20166,38637
32572,20117,38628
32509,20082,38668
32508,20044,38565
32524,20036,38660
32560,20067,38500
32596,20085,38483
32588,20135,38361
32548,20157,38297
32560,20178,38309
32580,20151,38352
32528,20130,38414
32492,20098,38269
32475,20037,38151
32501,20032,38340
32548,20044,38226
32632,20112,37887
32732,20114,38068
32760,20155,38253
32728,20172,38125
32540,20151,37973
32386,20132,37962
32384,20086,38044
32416,20036,38020
32448,20036,37905
32476,20059,38004
32557,20069,37680
32600,20126,37855
32596,20158,37977
32570,20185,37700
32553,20142,37876
32512,20124,37980
32464,20061,37872
32464,20037,37767
32464,20036,37888
32540,20027,37578
32596,20076,37740
32652,20122,37877
32600,20135,37524
32580,20159,37760
32569,20156,37700
32604,20098,37756
32576,20063,37852
32592,20060,37756
32588,20008,37844
32552,20036,37443
32585,20052,37638
32644,20105,37576
32694,20128,37561
32808,20155,37576
32868,20134,37529
32820,20109,37540
32620,20052,37508
32469,20021,37524
32492,20001,37589
32512,20031,37495
32584,20076,37461
32660,20108,37468
32692,20164,37481
32724,20151,37444
32741,20158,37376
32770,20106,37392
32756,20066,37440
32725,20015,37360
32720,20012,37396
32733,20007,37341
32752,20046,37284
32736,20097,37292
32712,20120,37215
32697,20148,37164
32640,20119,37127
32524,20096,37137
32545,20036,37069
32588,20025,36891
32645,19993,37220
32668,20023,36893
32716,20037,36975
32728,20102,36925
32748,20129,37030
32732,20162,36735
32716,20127,36855
32698,20082,36888
32688,20045,36917
32652,20018,36963
32653,19988,36870
32676,20020,36913
32704,20030,36788
32724,20080,36860
32736,20149,36476
32748,20126,36796
32700,20132,36389
32700,20071,36732
32708,20045,36336
32704,19989,36655
32725,19989,36524
32757,19997,36508
32728,20037,36452
32740,20068,36381
32780,20109,36348
32744,20147,36325
32704,20112,36288
32672,20066,36090
32696,20039,36328
32764,19993,36189
32804,20000,36153
32692,19999,36048
32660,20056,36006
32708,20069,35984
32748,20124,35920
32776,20129,35868
32796,20140,35856
32804,20084,35904
32797,20020,35932
32752,20004,35805
32768,19975,35836
32704,20020,35745
32744,20029,35812
32788,20084,35658
32808,20103,35668
32830,20135,35375
32762,20108,35676
32736,20054,35545
32688,20026,35573
32652,19982,35242
32586,19967,35425
32596,19976,35143
32668,20025,35348
32712,20077,35228
32760,20092,35255
32808,20121,35358
32780,20102,35012
32724,20069,35096
32641,20012,35132
32632,19990,34900
32632,19952,35136
32620,19979,34919
32662,20033,34980
32620,20065,34997
32561,20082,34937
32600,20113,35005
32652,20122,34884
32640,20057,34903
32592,20001,34797
32544,19988,34673
32552,19969,34822
32620,19962,34712
32684,20012,34594
32725,20040,34581
32752,20098,34404
32638,20101,34564
32540,20103,34336
32560,20057,34615
32640,20040,34279
32628,19972,34469
32556,19948,34251
32542,19966,34481
32584,19998,34421
32676,20045,34429
32740,20107,34361
32812,20092,34341
32776,20092,34311
32576,20029,34382
32516,19994,34040
32580,19978,34329
32644,19956,34215
32672,19994,34280
32712,19991,34124
32764,20016,34054
32772,20062,34126
32816,20090,34127
32864,20061,34069
32860,20049,33976
32924,20000,33948
32984,19947,33772
33044,19932,34055
33160,19942,33980
33328,19988,33876
33585,20017,33852
33888,20073,33716
34190,20081,33982
34524,20053,33828
35008,20032,33713
35720,19976,33769
36436,19959,33832
37144,19927,33806
37796,19949,33824
38352,19968,33879
38748,20025,33819
38836,20085,33856
38672,20068,33799
38312,20083,33713
37668,20031,33701
36772,20006,33576
35680,19954,33831
34268,19959,33794
32672,19945,33679
31108,19968,33913
30269,20012,33764
30124,20048,33644
30104,20059,33880
30132,20056,33792
30184,20021,33733
30320,19980,33793
30628,19933,33740
30984,19922,33775
31256,19924,33640
31552,19964,33969
31852,20001,33886
32160,20045,33967
32384,20081,33900
32448,20039,34011
32288,20015,33785
32172,19960,33889
32120,19930,33849
32124,19906,34011
32224,19932,33961
32280,19947,33964
32332,20002,33992
32365,20030,33918
32401,20042,33999
32392,20034,34021
32404,20009,34058
32369,19956,34092
32345,19928,34089
32364,19905,34156
32436,19935,33927
32536,19949,34212
32644,20000,34163
32712,20031,34142
32600,20050,34148
32413,20034,34157
32397,20012,34239
32414,19950,34328
32456,19929,34180
32488,19904,34265
32476,19922,34276
32532,19943,34327
32596,19999,34335
32661,20028,34340
32692,20047,34279
32688,20030,34297
32696,20009,34385
32652,19956,34501
32648,19940,34405
32615,19908,34329
32632,19956,34324
32716,19951,34412
32800,19995,34542
32888,20036,34463
32920,20040,34529
32952,20040,34456
32988,19997,34455
32928,19964,34463
32844,19962,34493
32685,19908,34481
32660,19937,34448
32636,19950,34469
32748,20012,34420
32804,20026,34493
32800,20063,34518
32828,20068,34448
32850,20004,34482
32846,19969,34485
32864,19918,34440
32840,19919,34427
32924,19951,34388
32988,19964,34385
33068,20021,34289
33148,20033,34397
33144,20071,34469
33032,20036,34460
32964,20018,34449
32925,19960,34330
32952,19946,34489
32944,19918,34391
33022,19921,34287
33072,19964,34300
33124,20001,34127
33172,20048,34356
33173,20074,34311
33180,20045,34376
33164,20028,34281
33160,19975,34176
33152,19927,34260
33196,19922,34225
33224,19925,34176
33265,19973,34092
33276,20005,34166
33324,20063,34078
33340,20065,34044
33344,20067,34001
33344,20011,34039
33308,19985,34055
33308,19940,34020
33296,19918,33949
33296,19937,33798
33332,19964,33921
33377,20035,33895
33408,20044,33879
33416,20065,33638
33384,20074,33889
33369,20035,33775
33352,19975,33552
33340,19948,33810
33392,19927,33685
33380,19951,33480
33263,19972,33709
33304,20052,33573
33356,20068,33435
33372,20103,33472
33356,20071,33343
33336,20053,33348
33296,19991,33205
33292,19964,33269
33272,19930,33238
33217,19957,33167
33140,19980,33031
32972,20041,33173
32920,20061,32956
32928,20086,33159
32873,20066,33050
32900,20053,32900
32796,19997,32940
32748,19972,32820
32685,19943,32848
32652,19967,32737
32640,19988,32788
32640,20053,32652
32612,20069,32728
32600,20100,32756
32559,20075,32634
32492,20053,32685
32432,19997,32564
32393,19996,32396
32348,19955,32391
32284,19985,32304
32276,19996,32383
32260,20052,32356
32320,20084,32202
32316,20133,32316
32237,20105,32046
32208,20079,32127
32136,20028,32023
32113,20007,32087
32120,19985,31895
32129,19975,32100
32132,20016,32026
32144,20054,32076
32196,20098,31966
32230,20111,31900
32197,20107,31892
32196,20066,31732
32192,20047,31737
32134,20001,31604
32136,19967,31853
32168,20007,31734
32188,20025,31684
32252,20087,31660
32288,20112,31544
32236,20119,31584
32272,20135,31599
32324,20089,31614
32208,20042,31519
32176,20022,31380
32208,19996,31552
32225,20027,31484
32245,20052,31529
32260,20110,31304
32333,20128,31509
32377,20183,31409
32376,20132,31433
32380,20103,31362
32388,20062,31228
32400,20028,31264
32404,20015,31197
32360,20046,31221
32408,20066,31160
32484,20124,31228
32580,20145,31116
32680,20155,31151
32640,20153,31111
32552,20134,31234
32368,20075,31238
32360,20047,31030
32372,20025,31140
32432,20056,31079
32520,20077,31125
32584,20135,31033
32644,20153,31225
32660,20197,31215
32676,20183,31096
32660,20163,31121
32629,20096,31092
32632,20081,31196
32628,20046,31179
32640,20068,31204
32668,20093,31140
32728,20153,31236
32692,20209,31239
32640,20202,31196
32672,20186,31047
32696,20172,31222
32688,20121,31192
32605,20117,31060
32452,20079,31266
32440,20076,31206
32552,20140,31060
32648,20167,31149
32668,20228,31172
32712,20224,31180
32716,20241,31172
32660,20197,31066
32636,20164,31145
32624,20100,31123
32620,20106,31118
32636,20106,30980
32661,20161,30992
32706,20184,30940
32716,20255,31053
32740,20252,30888
32736,20231,31069
32732,20206,30921
32736,20181,30999
32752,20128,30924
32732,20133,30993
32714,20170,31028
32677,20164,30951
32680,20221,30984
32660,20251,30812
32660,20286,30959
32580,20263,30764
32566,20236,30885
32560,20183,30839
32588,20162,30720
32620,20160,30759
32628,20148,30687
32632,20188,30800
32672,20255,30841
32704,20308,30637
32688,20292,30743
32596,20284,30781
32622,20272,30719
32650,20210,30740
32604,20184,30498
32480,20187,30688
32468,20172,30471
32576,20230,30535
32592,20280,30497
32560,20300,30549
32604,20333,30438
32620,20317,30513
32604,20290,30414
32576,20263,30489
32548,20199,30471
32588,20197,30463
32586,20222,30372
32612,20244,30284
32660,20293,30309
32685,20344,30225
32728,20349,30316
32709,20346,30197
32684,20316,30332
32684,20267,30248
32644,20239,30277
32632,20249,30192
32617,20236,30292
32644,20286,30316
32676,20348,30102
32684,20351,30168
32684,20381,30126
32672,20389,30236
32646,20340,30108
32628,20319,30141
32644,20273,30071
32636,20269,30269
32630,20256,30079
32700,20314,30164
32728,20360,30092
32740,20379,30157
32764,20407,30101
32768,20398,30244
32736,20374,30248
32636,20326,30272
32617,20309,30253
32624,20300,30215
32688,20293,30256
32748,20361,30148
32773,20377,30232
32685,20434,30116
32561,20432,30180
32588,20444,30120
32652,20389,30350
32696,20365,30303
32644,20325,30328
32650,20316,30309
32688,20354,30244
32708,20370,30298
32775,20428,30204
32840,20445,30293
32848,20484,30214
32792,20457,30282
32760,20452,30377
32736,20383,30436
32720,20360,30405
32712,20334,30398
32736,20357,30401
32764,20381,30284
32792,20440,30340
32777,20471,30329
32760,20500,30433
32752,20484,30471
32744,20462,30532
32772,20414,30343
32744,20382,30488
32724,20361,30361
32752,20393,30583
32740,20415,30533
32761,20480,30610
32724,20497,30551
32792,20537,30588
32756,20514,30416
32756,20505,30636
32712,20448,30607
32670,20415,30672
32672,20398,30625
32660,20404,30644
32668,20452,30460
32752,20505,30552
32788,20524,30520
32788,20568,30557
32752,20551,30496
32740,20530,30648
32737,20487,30679
32788,20458,30720
32788,20428,30695
32732,20452,30734
32800,20473,30700
32920,20541,30738
32972,20558,30727
32876,20597,30724
32748,20576,30720
32712,20562,30636
32712,20503,30716
32736,20480,30644
32752,20453,30733
32800,20478,30600
32868,20520,30661
32932,20552,30623
32972,20604,30673
32940,20605,30628
32848,20620,30692
32808,20612,30615
32864,20551,30727
32856,20503,30620
32844,20495,30671
32888,20500,30580
32918,20569,30816
32944,20597,30590
32928,20633,30708
32929,20642,30748
32892,20644,30772
32873,20644,30744
32868,20580,30779
32798,20564,30741
32744,20524,30792
32741,20544,30735
32792,20561,30813
32804,20633,30868
32748,20644,30652
32708,20684,30835
32696,20687,30879
32708,20638,30852
32684,20612,30820
32644,20560,30868
32652,20548,30893
32640,20579,30789
32668,20591,30804
32754,20652,30701
32777,20695,30820
32776,20702,30751
32784,20706,30837
32816,20663,30732
32792,20636,30968
32784,20588,30895
32796,20592,30782
32805,20590,30951
32804,20620,30917
32824,20679,30791
32821,20706,30873
32812,20746,30928
32720,20723,30975
32644,20708,30930
32632,20655,30909
32608,20624,30949
32600,20623,31003
32588,20620,30940
32682,20670,30818
32709,20698,30930
32736,20749,30847
32740,20753,30865
32712,20760,30836
32660,20740,30884
32620,20684,30838
32572,20663,30888
32522,20632,30856
32600,20647,30897
32728,20717,30832
32824,20743,31049
32888,20785,30999
32864,20788,31012
32712,20795,30973
32540,20750,30882
32596,20724,31000
32784,20711,30936
32900,20670,30996
32773,20693,30884
32680,20703,30973
32820,20764,30886
32988,20788,30980
33137,20820,30894
33268,20807,30932
33404,20788,30860
33620,20761,30932
33940,20705,30890
34308,20692,30943
34905,20697,30852
35684,20750,31078
36388,20828,31024
37148,20831,31008
37852,20841,31016
38420,20857,30892
38856,20811,30938
38936,20785,30876
38852,20740,31009
38596,20740,30900
38004,20781,31111
37216,20773,30873
36136,20836,31120
34612,20852,31054
32824,20888,31093
31016,20873,31062
29940,20849,30960
29608,20817,31020
29608,20774,30948
29741,20762,31038
30036,20758,30949
30440,20805,31000
30836,20836,30911
31162,20893,31040
31408,20896,30912
31632,20904,31004
31868,20895,30957
31976,20829,31064
32032,20799,30988
32068,20779,31072
32116,20795,30997
32192,20837,31081
32168,20862,31135
32160,20909,30900
32164,20941,31001
32173,20922,30942
32200,20899,31072
32244,20871,31066
32329,20812,30873
32320,20807,31032
32309,20822,30911
32396,20837,30937
32414,20902,30889
32296,20948,30921
32276,20945,30852
32276,20950,30900
32324,20939,30849
32332,20876,30900
32304,20853,30812
32324,20821,30964
32345,20839,30789
32408,20864,30980
32476,20921,30812
32524,20967,30928
32540,20967,31028
32568,20977,30966
32544,20932,31044
32493,20912,30786
32536,20885,30936
32544,20845,30797
32589,20863,30901
32660,20885,30820
32718,20949,31044
32714,20971,30808
32700,21012,30900
32660,21024,30831
32620,20967,30964
32692,20941,30895
32656,20887,30964
32676,20876,30881
32646,20889,30852
32520,20913,30951
32512,20969,30907
32600,21016,30940
32704,21022,30885
32720,21019,30961
32719,21008,30883
32657,20958,30932
32632,20930,30856
32644,20893,30924
32716,20909,30856
32793,20963,30993
32820,20985,31061
32828,21037,30999
32832,21045,31001
32868,21053,30971
32876,21010,30844
32904,20972,30956
33016,20948,31036
33017,20916,30808
32900,20930,30889
32704,20964,30804
32777,21040,30856
32884,21044,30864
32916,21077,30896
32920,21056,30799
32928,21045,30852
32940,21017,30812
32920,20956,30820
32852,20949,30772
32868,20942,30796
32913,20993,30774
32996,21048,30780
33048,21066,30831
33112,21097,30748
33140,21080,30796
33144,21060,30740
33156,21028,30727
33148,20979,30548
33192,20972,30764
33216,20997,30544
33240,20997,30620
33224,21052,30565
33316,21088,30600
33312,21110,30557
33260,21103,30644
33228,21084,30688
33152,21050,30648
33160,20997,30660
33156,20992,30545
33164,20981,30663
33224,21035,30573
33320,21061,30632
33328,21106,30535
33348,21148,30652
33372,21129,30520
33340,21111,30628
33292,21049,30727
33232,21024,30517
33191,21011,30648
33194,21028,30689
33184,21045,30497
33208,21089,30637
33176,21134,30693
33117,21144,30477
33100,21153,30613
32976,21110,30477
32860,21076,30599
32793,21060,30641
32760,21016,30468
32716,21028,30572
32724,21074,30594
32696,21100,30580
32662,21149,30536
32628,21188,30594
32548,21177,30545
32452,21150,30576
32382,21094,30574
32200,21069,30567
32160,21033,30580
32176,21061,30473
32184,21086,30412
32184,21125,30476
32104,21159,30446
32136,21196,30573
32164,21188,30526
32220,21170,30614
32156,21116,30617
32064,21091,30634
31900,21060,30532
31868,21080,30655
31916,21103,30533
31988,21151,30660
32036,21188,30569
32038,21215,30679
32048,21196,30684
31984,21176,30768
31941,21127,30862
31920,21101,30664
31904,21072,30756
31852,21087,30776
31852,21117,30873
31876,21179,30797
31928,21196,30780
31965,21232,30924
31956,21216,30911
31920,21203,30980
31872,21153,30873
31876,21130,30942
31860,21098,30941
31944,21117,31040
32068,21130,31073
32208,21188,31143
32344,21213,31208
32316,21247,31029
32117,21252,31282
31953,21204,31100
31920,21172,31298
31944,21127,31208
31972,21114,31294
32040,21124,31337
32094,21139,31460
32184,21193,31432
32204,21238,31469
32212,21272,31579
32244,21249,31636
32288,21221,31517
32308,21193,31687
32336,21141,31764
32320,21126,31797
32316,21127,31895
32376,21176,31884
32392,21223,31944
32400,21250,31968
32416,21274,32020
32424,21260,32114
32388,21237,32204
32352,21191,32220
32300,21165,32352
32320,21155,32174
32372,21140,32304
32400,21180,32344
32408,21231,32496
32452,21267,32501
32496,21296,32545
32468,21280,32596
32508,21251,32748
32480,21217,32799
32396,21167,32740
32304,21165,32918
32346,21166,33055
32468,21180,32831
32576,21232,33036
32688,21281,33022
32741,21287,33173
32740,21287,33247
32644,21272,33287
32468,21215,33397
32365,21191,33300
32356,21170,33477
32416,21162,33615
32452,21186,33477
32504,21250,33648
32560,21299,33783
32600,21307,33567
32608,21311,33868
32557,21267,33772
32456,21221,33943
32456,21200,33908
32468,21181,34116
32480,21170,34121
32424,21215,34174
32420,21244,34241
32420,21297,34270
32452,21300,34374
32484,21311,34411
32521,21271,34420
32524,21245,34436
32480,21197,34624
32496,21195,34720
32438,21190,34881
32388,21227,34888
32392,21263,35005
32420,21289,35032
32484,21320,35112
32512,21311,35163
32500,21287,35204
32440,21239,35284
32452,21217,35301
32496,21174,35456
32508,21198,35528
32508,21225,35604
32480,21252,35593
32456,21317,35886
32440,21319,35888
32472,21336,35960
32448,21287,36016
32432,21239,35985
32404,21208,36245
32465,21182,36064
32541,21193,36399
32664,21215,36428
32652,21271,36648
32577,21300,36605
32588,21332,36815
32632,21320,36794
32704,21300,36957
32652,21248,36719
32544,21213,36961
32404,21204,37060
32376,21191,37209
32405,21225,37380
32464,21278,37303
32484,21304,37472
32485,21330,37649
32488,21330,37632
32544,21290,37756
32549,21255,37532
32609,21240,37926
32613,21201,37755
32656,21217,37956
32692,21238,37912
32748,21279,38112
32732,21301,38241
32712,21334,38398
32700,21340,38572
32697,21288,38548
32672,21268,38692
32652,21236,38533
32662,21191,38670
32684,21202,38767
32636,21223,38844
32664,21273,38937
32716,21336,39076
32773,21338,39268
32804,21337,39244
32765,21298,39250
32721,21258,39149
32696,21220,39502
32692,21201,39189
32672,21216,39493
32700,21223,39600
32720,21282,39732
32736,21306,39572
32752,21340,39980
32760,21324,39941
32804,21316,40032
32860,21259,40036
32848,21236,40135
32832,21230,40193
32716,21199,40268
32736,21239,39984
32769,21268,40454
32784,21317,40317
32800,21343,40408
32824,21324,40508
32798,21309,40612
32752,21275,40796
32728,21217,40701
32732,21208,40788
32756,21217,40812
32784,21228,40897
32824,21280,40996
32848,21304,41031
32836,21334,41037
32852,21349,41092
32832,21297,41157
32781,21269,41266
32744,21240,41486
32784,21196,41020
32836,21205,41344
32872,21225,41247
32864,21270,41511
32876,21324,41464
32881,21340,41479
32873,21349,41521
32896,21300,41572
32864,21278,41660
32821,21237,41724
32820,21199,41716
32840,21208,41735
32820,21242,41885
32848,21268,41821
32844,21320,41892
32896,21359,41860
32937,21330,42004
32968,21315,41879
32924,21255,42021
32816,21233,41543
32745,21214,41820
32764,21199,41953
32816,21247,41928
32836,21287,41991
32856,21311,41884
32876,21341,41577
32908,21348,41900
32928,21292,41924
32936,21269,41933
32908,21215,42061
32916,21196,41607
32904,21193,41851
32896,21229,41838
32844,21295,41911
32900,21317,42026
32932,21349,41581
32944,21332,41796
32932,21307,41936
32878,21287,41619
32844,21219,41828
32860,21205,41888
32896,21227,41717
32876,21237,41716
32944,21257,41665
32954,21320,41720
33044,21342,41639
33013,21320,41836
32936,21311,41296
32896,21249,41533
32868,21221,41543
32868,21223,41598
32888,21202,41620
32972,21240,41460
33036,21267,41500
33016,21311,41540
32992,21346,41572
32952,21334,41063
32968,21313,41298
32964,21260,41382
32968,21224,41324
32970,21192,41284
32940,21209,41188
32921,21223,41228
32928,21281,41326
32928,21295,40938
33016,21342,41009
33004,21328,40964
32964,21313,40984
32908,21246,41029
32852,21225,40956
32824,21205,41012
32856,21185,40605
32932,21225,40852
32936,21255,40516
32900,21307,40644
32804,21320,40622
32800,21319,40639
32840,21306,40690
32788,21252,40588
32788,21216,40613
32776,21208,40512
32756,21187,40484
32752,21220,40184
32857,21288,40316
32932,21296,40252
33000,21320,40455
33012,21331,40288
33004,21287,40301
32968,21254,40100
32972,21231,40124
33004,21184,40213
33024,21198,40121
33060,21208,40063
33092,21258,40028
33040,21312,40134
32984,21313,39760
32960,21323,39953
32920,21287,39620
32826,21250,39950
32744,21208,39700
32760,21184,39877
32796,21177,39560
32836,21212,39815
32876,21284,39758
32892,21295,39700
32966,21322,39741
32970,21306,39732
32976,21295,39776
32956,21235,39703
32900,21209,39812
32912,21179,39372
32924,21184,39566
32966,21210,39676
33001,21241,39648
33024,21296,39628
33044,21302,39567
33048,21321,39496
33096,21279,39527
33160,21248,39589
33252,21197,39509
33356,21188,39591
33484,21172,39174
33660,21205,39348
33916,21232,39384
34188,21293,39340
34489,21294,39426
34824,21319,39271
35232,21288,39208
35792,21276,39236
36448,21209,39332
37128,21181,39058
37716,21160,39140
38204,21202,39213
38580,21272,38805
38704,21280,38985
38584,21333,38797
38276,21297,38996
37720,21281,38980
37012,21228,38967
36060,21191,39078
34712,21186,38663
33321,21164,38808
31928,21199,38823
30944,21233,38881
30680,21271,38884
30628,21296,38791
30584,21303,38853
30549,21264,38788
30712,21229,38849
30976,21179,38624
31240,21161,38708
31508,21157,38829
31792,21188,38615
32052,21215,38663
32264,21261,38720
32448,21284,38503
32544,21295,38552
32544,21252,38476
32540,21223,38586
32502,21181,38613
32492,21173,38535
32504,21141,38565
32573,21170,38597
32629,21205,38276
32700,21266,38407
32716,21287,38476
32704,21289,38328
32716,21241,38364
32660,21205,38468
32624,21186,38469
32612,21133,38432
32644,21148,38501
32644,21175,38212
32728,21222,38393
32764,21231,38261
32796,21268,38474
32844,21273,38460
32848,21232,38372
32800,21210,38036
32764,21154,38241
32784,21143,38279
32812,21141,38149
32854,21151,38207
32916,21182,38181
32996,21230,38116
33024,21267,38151
33016,21249,37854
33024,21225,38056
32960,21188,38048
32924,21165,37948
32824,21116,37964
32796,21125,37831
32786,21148,38002
32820,21183,37844
32900,21235,37553
32972,21239,37748
32992,21255,37836
32912,21247,37620
32910,21181,37663
32848,21142,37615
32772,21125,37572
32860,21109,37553
32896,21146,37438
32940,21165,37441
32961,21210,37494
32996,21239,37477
33028,21248,37434
33013,21220,37185
33064,21163,37289
33060,21124,37401
32968,21105,37134
32858,21112,37281
32892,21116,37260
32984,21161,37120
33029,21208,37156
33044,21212,37247
33024,21223,36956
33000,21201,37090
33012,21188,37133
33024,21113,36817
33032,21099,36990
33052,21084,37056
33096,21103,36709
33132,21154,36892
33188,21184,36920
33208,21206,36670
33232,21227,36896
33256,21180,36768
33204,21156,36804
33216,21096,36783
33248,21079,36825
33260,21066,36813
33296,21095,36700
33336,21144,36716
33376,21173,36789
33396,21196,36743
33432,21209,36744
33464,21165,36615
33436,21136,36701
33440,21105,36748
33432,21058,36397
33380,21058,36552
33436,21092,36671
33462,21137,36588
33464,21158,36447
33476,21189,36584
33496,21192,36462
33454,21174,36580
33460,21132,36449
33493,21095,36252
33477,21074,36493
33381,21053,36437
33380,21070,36548
33404,21121,36188
33430,21172,36379
33416,21178,36469
33404,21174,36273
33364,21159,36297
33372,21127,36332
33356,21070,36308
33336,21054,36396
33308,21054,36071
33236,21080,36236
33244,21129,36164
33260,21140,36077
33200,21180,36096
33156,21193,36220
33080,21140,35904
32984,21108,36021
32876,21070,36064
32804,21054,35809
32760,21029,35898
32720,21071,35893
32736,21097,35921
32708,21125,35985
32684,21167,35716
32640,21185,35796
32628,21132,35822
32568,21103,35799
32553,21076,35864
32508,21025,35644
32408,21032,35677
32244,21051,35688
32192,21093,35642
32250,21145,35624
32280,21148,35658
32272,21157,35469
32232,21132,35552
32144,21102,35588
32112,21046,35386
32100,21010,35463
32116,21023,35495
32104,21041,35416
32152,21076,35170
32208,21128,35304
32280,21141,35377
32288,21148,35318
32196,21129,35294
32064,21099,35241
32052,21030,35015
32096,21020,35207
32144,21021,35105
32138,21025,35166
32149,21084,35260
32138,21116,35041
32180,21145,35113
32204,21154,35005
32188,21111,35172
32156,21069,35024
32140,21034,34823
32116,21001,34969
32152,20988,34972
32196,21015,34960
32280,21061,34864
32320,21111,34874
32336,21118,34665
32348,21119,34852
32342,21101,34903
32340,21072,34622
32304,21014,34689
32269,20993,34762
32333,21005,34525
32340,21008,34661
32388,21062,34595
32397,21080,34629
32417,21117,34711
32444,21125,34503
32440,21108,34584
32401,21044,34460
32396,21009,34606
32368,20988,34327
32388,20964,34398
32436,21009,34356
32480,21047,34438
32520,21066,34524
32568,21093,34322
32600,21109,34156
32624,21092,34322
32540,21060,34429
32365,20988,34207
32324,20973,34270
32380,20979,34281
32425,20991,34220
32484,21028,34264
32524,21060,34064
32572,21092,34121
32570,21103,34126
32544,21065,33864
32468,21032,34013
32412,20978,34064
32396,20964,33992
32492,20939,33992
32520,20980,33908
32468,20999,33836
32452,21062,33848
32484,21065,33877
32481,21087,33543
32460,21050,33744
32408,21028,33495
32385,20969,33701
32452,20932,33401
32488,20936,33498
32500,20950,33375
32513,21010,33543
32548,21026,33268
32524,21070,33325
32520,21062,33389
32504,21037,33359
32432,21016,33328
32428,20956,33204
32417,20926,33253
32424,20935,33265
32486,20938,32961
32556,20980,33068
32640,21015,33001
32592,21050,32996
32528,21068,32915
32480,21033,33023
32432,20980,32808
32444,20956,33018
32432,20924,32889
32457,20928,32775
32489,20935,32796
32452,20958,32604
32476,21009,32833
32488,21025,32528
32516,21038,32728
32496,21041,32468
32473,20975,32714
32417,20921,32605
32448,20901,32606
32440,20892,32524
32472,20917,32455
32488,20945,32452
32496,20996,32428
32538,21042,32426
32548,21033,32458
32544,21013,32160
32544,20948,32221
32510,20926,32177
32424,20878,32261
32344,20880,32293
32368,20898,32034
32428,20932,32160
32452,20988,32225
32473,20999,32128
32552,21020,32146
32620,20980,31908
32560,20959,32087
32408,20900,32055
32361,20871,32069
32404,20879,31808
32452,20900,31940
32553,20920,32004
32613,20966,31764
32644,20982,31860
32632,20993,31945
32616,20974,31756
32604,20932,31844
32592,20886,31872
32570,20863,31702
32564,20870,31813
32592,20869,31688
32636,20923,31661
32656,20948,31744
32684,20983,31783
32708,20981,31690
32708,20960,31751
32680,20935,31556
32697,20870,31662
32696,20850,31735
32681,20857,31457
32696,20855,31540
32744,20897,31558
32764,20936,31588
32773,20965,31543
32732,20973,31468
32736,20969,31548
32728,20916,31532
32733,20890,31516
32760,20847,31469
32736,20841,31494
32696,20839,31396
32704,20892,31420
32732,20935,31277
32772,20948,31396
32776,20959,31293
32772,20928,31471
32800,20905,31416
32793,20845,31445
32772,20831,31388
32756,20813,31248
32758,20848,31264
32756,20879,31162
32772,20935,31238
32788,20937,31251
32796,20961,31303
32816,20932,31329
32821,20900,31299
32812,20844,31308
32852,20824,31264
32784,20807,31284
32710,20837,31238
32704,20869,31100
32701,20895,31129
32704,20941,31123
32756,20949,31202
32768,20909,31218
32772,20882,31038
32768,20828,31108
32702,20805,31085
32764,20785,31173
32788,20829,31140
32808,20843,31156
32784,20903,31197
32831,20916,31156
32865,20937,31109
32840,20898,31137
32796,20881,31181
32776,20811,31146
32708,20809,31193
32736,20771,30965
32753,20812,31135
32764,20831,31018
32808,20878,31152
32860,20904,31213
32884,20901,31145
32904,20899,31125
32896,20860,31004
32868,20799,31126
32860,20780,31143
32820,20786,31172
32840,20794,31244
32900,20839,30996
32932,20860,31157
32924,20911,30998
32900,20895,31140
32868,20878,31084
32813,20847,30984
32856,20811,31172
32884,20752,31072
32904,20759,31060
32878,20797,31162
32916,20804,31065
32948,20860,31017
32980,20889,31088
32984,20897,31021
32998,20861,31118
32981,20836,31028
32956,20773,31111
32912,20750,31181
32836,20740,31101
32804,20773,31164
32844,20815,30918
32856,20834,30991
32852,20864,30937
32872,20885,31028
32876,20846,31110
32848,20812,31044
32864,20789,31053
32893,20742,30852
32916,20742,30923
33044,20744,30837
33156,20797,30956
33140,20816,30868
32912,20865,30944
32744,20855,30945
32684,20844,30934
32752,20817,30936
32820,20766,30905
32864,20716,30887
32892,20731,30844
32912,20730,30727
32968,20773,30820
32956,20812,30847
32929,20857,30727
32936,20860,30723
32924,20841,30649
32928,20797,30692
32912,20767,30636
32928,20717,30711
32938,20694,30736
32884,20739,30653
32916,20756,30692
32917,20823,30569
32940,20832,30681
32960,20834,30521
32908,20811,30740
32864,20788,30580
32824,20737,30476
32796,20693,30693
32724,20706,30620
32732,20710,30484
32780,20741,30600
32792,20782,30608
32804,20825,30598
32804,20816,30567
32772,20816,30424
32740,20769,30551
32716,20716,30415
32744,20697,30584
32744,20679,30532
32758,20708,30476
32796,20740,30505
32840,20790,30500
32920,20809,30489
32972,20847,30436
32964,20796,30420
32916,20748,30309
32760,20729,30392
32620,20676,30269
32642,20687,30309
32736,20693,30260
32856,20741,30288
32948,20768,30237
32936,20788,30313
32828,20801,30351
32676,20807,30350
32648,20747,30152
32660,20708,30218
32648,20653,30296
32684,20665,30274
32716,20700,30196
32780,20708,30178
32840,20769,30086
32800,20793,30148
32752,20799,30069
32732,20759,30193
32648,20724,30252
32624,20677,30184
32645,20654,30192
32672,20656,30004
32676,20656,30113
32688,20713,30132
32687,20737,30050
32704,20772,30135
32728,20768,30144
32748,20761,30123
32788,20700,30032
32836,20669,30106
32924,20647,30137
32980,20624,29932
33084,20662,30093
33257,20677,29924
33444,20731,30032
33765,20749,29901
34120,20770,29956
34504,20735,29857
35120,20726,30072
35868,20664,29997
36572,20653,30040
37292,20615,29989
37948,20658,30009
38552,20669,29968
38984,20727,29866
39152,20773,29801
39048,20743,29845
38608,20741,29775
37900,20692,29828
37048,20649,29796
35884,20639,29893
34324,20608,29884
32557,20645,29752
30945,20674,29860
30168,20703,29880
29976,20743,29717
29996,20747,29884
30024,20719,29824
30148,20688,29822
30409,20638,29804
30764,20633,29826
31100,20600,29796
31388,20613,29694
31724,20662,29767
32028,20689,29763
32216,20732,29772
32284,20728,29759
32312,20720,29758
32285,20671,29716
32276,20640,29602
32232,20595,29772
32236,20605,29622
32236,20604,29716
32268,20641,29617
32316,20679,29810
32380,20719,29760
32372,20712,29804
32368,20708,29770
32340,20655,29632
32352,20624,29668
32372,20584,29697
32356,20584,29780
32412,20605,29829
32436,20628,29618
32480,20678,29684
32524,20697,29622
32508,20719,29760
32484,20684,29637
32472,20663,29812
32476,20607,29800
32484,20593,29668
32522,20565,29796
32584,20597,29756
32609,20619,29813
32630,20698,29680
32692,20690,29798
32681,20717,29711
32685,20681,29831
32700,20652,29703
32712,20596,29784
32590,20573,29733
32528,20553,29752
32556,20604,29711
32608,20616,29833
32714,20648,29815
32800,20687,29732
32780,20684,29736
32780,20668,29719
32776,20648,29800
32712,20588,29821
32768,20564,29630
32872,20541,29764
32940,20567,29818
33040,20597,29593
33092,20645,29637
32988,20689,29697
32868,20688,29696
32832,20678,29581
32796,20623,29676
32780,20589,29700
32817,20540,29644
32904,20538,29670
32952,20580,29464
33012,20585,29510
33044,20643,29421
33048,20652,29511
33008,20677,29499
32996,20644,29492
32992,20622,29504
32976,20590,29433
32988,20532,29476
32972,20534,29250
32952,20551,29353
33005,20568,29212
33021,20625,29247
33064,20640,29167
33092,20663,29253
33072,20656,29196
33076,20603,29262
33084,20568,29175
33088,20554,29247
33080,20519,29164
33092,20530,29191
33121,20576,29053
33088,20603,29123
33116,20647,29038
33140,20644,29085
33160,20636,29013
33208,20612,29126
33233,20557,29037
33208,20532,29129
33136,20509,29140
33156,20544,29104
33204,20564,29100
33208,20578,29076
33220,20625,29063
33194,20640,28889
33216,20636,29036
33200,20580,29005
33188,20555,29016
33216,20507,29032
33200,20509,28984
33200,20516,28880
33216,20549,28813
33236,20606,28927
33244,20631,28862
33236,20650,28896
33216,20612,28884
33188,20593,28866
33156,20525,28854
33145,20503,28669
33133,20508,28793
33168,20505,28757
33144,20553,28626
33052,20600,28665
32936,20611,28634
32844,20620,28713
32704,20613,28716
32644,20569,28524
32580,20516,28655
32512,20503,28628
32500,20494,28468
32500,20495,28615
32492,20532,28622
32484,20588,28439
32448,20599,28519
32400,20621,28425
32324,20593,28536
32236,20571,28572
32135,20532,28519
32084,20476,28476
32108,20481,28352
32168,20502,28484
32184,20517,28519
32064,20574,28332
32064,20612,28398
32080,20599,28319
32060,20593,28450
31964,20549,28477
31936,20512,28438
31908,20487,28477
31893,20461,28432
31908,20487,28456
31940,20515,28305
31980,20561,28365
32008,20608,28252
32050,20599,28316
32016,20577,28252
31940,20548,28328
31908,20512,28380
31894,20460,28396
31936,20468,28436
31960,20466,28248
31976,20522,28300
32061,20557,28221
32092,20599,28351
32104,20596,28283
32112,20583,28357
32096,20529,28362
32100,20499,28348
32068,20471,28305
32076,20453,28352
32128,20458,28183
32084,20509,28302
31992,20539,28175
32040,20581,28243
32116,20588,28148
32156,20556,28304
32156,20525,28341
32200,20499,28156
32208,20439,28248
32276,20447,28285
32301,20464,28292
32328,20487,28325
32344,20533,28156
32373,20580,28178
32412,20574,28119
32364,20565,28188
32356,20509,28102
32352,20482,28166
32393,20433,28257
32412,20441,28227
32440,20445,28260
32364,20493,28182
32392,20514,28260
32488,20572,28119
32516,20567,28220
32544,20543,28108
32516,20512,28184
32500,20462,28118
32492,20444,28277
32484,20421,28279
32472,20433,28239
32488,20487,28263
32544,20508,28295
32600,20551,28117
32608,20552,28222
32600,20543,28128
32560,20511,28256
32540,20453,28271
32496,20443,28269
32524,20409,28238
32504,20447,28147
32556,20470,28244
32617,20521,28095
32640,20538,28248
32654,20551,28271
32652,20529,28104
32640,20492,28207
32584,20457,28209
32544,20416,28212
32516,20411,28228
32556,20452,28053
32589,20464,28158
32625,20495,28023
32685,20545,28144
32705,20556,28161
32736,20520,28096
32628,20493,28006
32460,20445,28016
32398,20412,28004
32400,20396,28106
32430,20422,28057
32476,20446,28084
32548,20503,28093
32584,20521,27911
32544,20542,28064
32517,20538,28084
32492,20479,27900
32538,20447,28015
32590,20400,27939
32566,20399,28045
32472,20424,27972
32476,20444,27860
32536,20494,28007
32562,20512,27933
32608,20532,28012
32628,20505,27970
32584,20480,28029
32576,20444,28000
32536,20391,28029
32508,20388,28024
32480,20396,27953
32496,20436,27883
32564,20484,28026
32590,20541,28073
32581,20522,27908
32596,20512,27960
32549,20457,27909
32552,20431,27956
32532,20385,27951
32524,20379,28068
32512,20389,28076
32572,20430,28081
32604,20497,28089
32588,20490,27929
32632,20517,28001
32620,20493,28036
32620,20461,27977
32608,20434,28101
32604,20381,27989
32596,20393,28098
32616,20390,28013
32644,20436,28118
32704,20452,28132
32712,20504,28145
32704,20500,28149
32728,20503,27983
32696,20464,28150
32652,20404,28200
32661,20380,28016
32692,20376,28146
32736,20370,28183
32788,20421,28166
32852,20448,28194
32824,20492,28180
32677,20493,28191
32562,20503,28048
32620,20455,28152
32672,20420,28233
32677,20358,28036
32620,20351,28073
32576,20364,28209
32596,20424,28212
32604,20436,28068
32672,20483,28236
32724,20481,28277
32736,20486,28241
32700,20429,28285
32712,20405,28135
32673,20356,28232
32652,20352,28124
32652,20353,28189
32708,20406,28133
32736,20431,28302
32767,20471,28221
32796,20484,28289
32802,20477,28185
32764,20426,28220
32677,20389,28303
32624,20366,28231
32632,20332,28383
32684,20357,28295
32700,20406,28341
32760,20433,28292
32796,20468,28405
32824,20497,28457
32832,20455,28353
32788,20423,28408
32748,20375,28300
32756,20351,28437
32768,20327,28506
32756,20345,28316
32760,20388,28488
32756,20455,28476
32792,20458,28364
32813,20484,28496
32804,20455,28452
32776,20429,28352
32777,20372,28509
32788,20342,28431
32812,20345,28431
32848,20340,28526
32876,20383,28536
32876,20436,28364
32848,20455,28521
32832,20477,28560
32820,20439,28387
32784,20416,28423
32772,20358,28532
32772,20324,28550
32792,20325,28404
32812,20325,28524
32824,20376,28593
32902,20407,28432
32957,20462,28421
33000,20447,28564
33004,20444,28610
32956,20397,28421
32852,20377,28533
32648,20346,28437
32612,20317,28508
32704,20337,28445
32816,20373,28575
32928,20416,28612
32879,20429,28620
32732,20444,28542
32708,20425,28493
32672,20399,28652
32712,20348,28712
32732,20324,28556
32732,20338,28722
32748,20313,28708
32748,20370,28745
32780,20391,28568
32796,20430,28750
32824,20454,28792
32808,20439,28641
32784,20395,28764
32744,20349,28708
32692,20308,28657
32656,20317,28820
32692,20319,28897
32700,20345,28869
32740,20405,28925
32754,20433,28759
32780,20427,28831
32788,20420,28820
32732,20381,28957
32696,20336,29002
32708,20319,29005
32704,20293,28883
32726,20308,28972
32768,20358,28918
32820,20375,29066
32844,20419,29132
32852,20442,28993
32828,20423,29199
32772,20394,29165
32805,20326,29209
32780,20304,29071
32752,20307,29140
32772,20320,29316
32816,20333,29156
32844,20378,29301
32804,20429,29172
32816,20418,29300
32846,20415,29220
32788,20395,29367
32769,20323,29455
32764,20303,29438
32768,20280,29526
32764,20302,29485
32800,20325,29376
32882,20374,29516
32952,20428,29572
33024,20428,29584
32976,20423,29612
32808,20365,29457
32704,20336,29625
32672,20304,29601
32704,20271,29673
32752,20293,29601
32776,20335,29587
32844,20357,29729
32896,20410,29726
32920,20413,29629
32932,20406,29770
32912,20381,29732
32904,20320,29796
32848,20297,29880
32860,20285,29699
32818,20280,29821
32821,20319,29733
32876,20355,29857
32948,20398,29765
33004,20420,29904
33020,20384,29966
32944,20359,29799
32884,20321,29944
32877,20268,29873
32864,20265,29973
32885,20296,29981
32916,20309,29988
32928,20374,30044
32888,20380,29860
32852,20396,30024
32808,20392,30012
32728,20365,29898
32688,20301,30025
32652,20285,30009
32660,20249,30053
32646,20276,29932
32677,20329,30069
32712,20340,30125
32719,20393,30109
32736,20391,30172
32740,20391,30124
32725,20336,30201
32680,20318,30111
32684,20266,30020
32716,20265,30092
32797,20259,30040
32836,20294,30030
32804,20353,30201
32789,20364,30084
32804,20400,30136
32817,20370,30108
32824,20356,30197
32796,20291,30141
32760,20270,30304
32636,20242,30376
32588,20271,30191
32628,20311,30353
32704,20329,30288
32740,20372,30368
32764,20382,30272
32774,20388,30425
32752,20335,30488
32676,20307,30312
32652,20293,30484
32700,20252,30441
32688,20274,30385
32728,20297,30468
32792,20351,30430
32764,20359,30564
32736,20388,30642
32740,20356,30456
32708,20337,30562
32708,20288,30560
32716,20256,30688
32772,20233,30737
32792,20264,30718
32788,20277,30694
32836,20332,30644
32916,20352,30789
33008,20382,30797
33102,20362,30682
33180,20345,30916
33240,20294,30860
33332,20268,30764
33492,20229,30889
33804,20261,30964
34184,20277,30758
34556,20327,30868
35140,20381,30864
35848,20364,30988
36440,20376,30988
37124,20359,30839
37760,20285,30948
38260,20268,30927
38620,20230,31069
38776,20249,31066
38764,20301,30980
38545,20319,31109
37868,20366,31197
37045,20365,30973
35898,20368,31116
34316,20324,31056
32504,20292,31148
30888,20244,31109
30020,20231,31205
29780,20239,31132
29864,20276,31286
30016,20324,31268
30316,20350,31252
30629,20359,31166
30933,20348,31362
31204,20332,31289
31384,20268,31431
31600,20244,31239
31788,20221,31357
32000,20236,31342
32160,20285,31495
32270,20301,31408
32276,20345,31470
32260,20380,31544
32272,20349,31584
32256,20327,31408
32240,20265,31582
32197,20229,31632
32188,20222,31580
32252,20221,31673
32310,20276,31759
32356,20320,31582
32348,20334,31696
32344,20366,31764
32368,20357,31746
32356,20308,31735
32348,20271,31648
32356,20252,31785
32352,20210,31806
32365,20238,31678
32404,20255,31802
32496,20313,31895
32493,20359,31733
32448,20354,31871
32412,20348,31917
32388,20305,31708
32444,20265,31861
32492,20248,31916
32532,20211,31760
32506,20239,32013
32480,20256,31772
32588,20309,31920
32644,20331,31964
32628,20356,31995
32600,20343,32004
32609,20324,32013
32592,20277,32007
32612,20220,31992
32656,20213,31973
32672,20221,31933
32732,20270,31994
32814,20290,32061
32880,20372,31971
32904,20352,31948
32784,20332,31997
32680,20312,31879
32700,20267,31970
32756,20246,31904
32748,20222,31972
32768,20256,31923
32768,20257,31940
32824,20292,31781
32912,20333,31991
32960,20343,31773
32956,20334,31885
32912,20321,31810
32900,20261,31907
32876,20236,31938
32864,20210,31893
32940,20234,31880
32988,20260,31892
33076,20320,31969
33064,20327,31739
33068,20381,31920
33056,20336,31685
33008,20305,31828
33016,20245,31793
32992,20225,31823
32968,20196,31876
33020,20213,31661
33120,20233,31716
33240,20293,31689
33276,20314,31792
33184,20338,31768
33180,20324,31812
33156,20304,31744
33176,20277,31827
33188,20213,31874
33184,20199,31716
33196,20204,31812
33208,20250,31776
33240,20313,31868
33292,20316,31792
33344,20338,31765
33376,20316,31873
33333,20296,31751
33304,20239,31869
33273,20220,31878
33316,20185,31901
33348,20210,31878
33412,20229,31929
33508,20276,31986
33528,20342,31740
33520,20320,31932
33544,20325,31892
33600,20300,31819
33572,20255,31850
33496,20201,31812
33336,20189,31844
33340,20196,31812
33405,20247,31846
33476,20288,31844
33536,20306,31908
33501,20342,31822
33440,20324,31887
33336,20287,31940
33272,20233,31896
33212,20214,31796
33184,20195,31820
33172,20195,31868
33133,20243,31909
33120,20270,31847
33069,20316,31897
33044,20318,31812
33036,20319,31872
32944,20295,31760
32844,20234,31693
32776,20212,31712
32704,20178,31588
32672,20192,31645
32664,20242,31564
32640,20276,31630
32644,20316,31521
32624,20327,31541
32612,20300,31448
32564,20276,31545
32396,20258,31495
32308,20194,31569
32300,20181,31474
32304,20212,31420
32337,20214,31508
32360,20272,31396
32368,20314,31388
32394,20308,31475
32428,20312,31421
32444,20285,31391
32388,20229,31438
32276,20206,31405
32192,20190,31383
32116,20204,31322
32128,20227,31348
32216,20277,31313
32309,20295,31429
32320,20314,31421
32316,20313,31394
32296,20295,31464
32276,20221,31484
32280,20201,31304
32280,20170,31428
32316,20201,31397
32353,20213,31544
32424,20271,31618
32513,20304,31581
32472,20331,31657
32432,20304,31631
32316,20284,31567
32293,20229,31636
32352,20197,31629
32400,20161,31724
32424,20181,31758
32460,20204,31772
32472,20257,31837
32493,20302,31640
32504,20294,31908
32528,20296,31685
32512,20277,31837
32500,20228,31778
32496,20180,31903
32472,20175,31946
32520,20175,32044
32588,20212,31985
32597,20289,32102
32624,20295,32036
32656,20303,32068
32692,20303,32038
32673,20257,31977
32656,20220,32113
32508,20208,32033
32500,20169,32053
32552,20172,32045
32644,20209,32149
32676,20268,32092
32714,20281,32172
32720,20314,32120
32752,20288,32200
32744,20267,32209
32708,20207,32273
32701,20186,32340
32724,20186,32101
32759,20173,32362
32840,20193,32295
32828,20249,32397
32788,20299,32119
32692,20290,32293
32668,20298,32116
32684,20256,32360
32688,20224,32318
32720,20173,32340
32752,20167,32167
32732,20178,32292
32640,20195,32215
32616,20252,32293
32700,20268,32224
32752,20306,32319
32740,20280,32391
32680,20259,32177
32616,20229,32257
32593,20188,32083
32620,20192,32332
32664,20172,32258
32728,20199,32084
32748,20259,32288
32764,20289,32224
32736,20287,32025
32712,20302,32241
32670,20252,32180
32602,20226,32049
32592,20168,32081
32604,20156,31953
32612,20175,32208
32620,20192,31925
32652,20248,32169
32688,20269,32078
32718,20308,31944
32712,20292,31990
32696,20251,31901
32552,20225,32039
32540,20174,31988
32536,20153,31808
32540,20167,32086
32548,20191,31983
32612,20251,32030
32608,20262,31972
32616,20297,31855
32640,20276,31863
32636,20263,31792
32632,20204,31840
32624,20164,31924
32673,20153,31983
32668,20155,31917
32629,20196,31928
32636,20231,31872
32668,20282,31716
32733,20286,31989
32752,20276,31908
32704,20260,31785
32696,20208,31885
32640,20197,31735
32584,20156,31914
32584,20155,31843
32636,20203,32004
32736,20265,31937
32796,20271,31985
32840,20297,31789
32844,20264,31940
32796,20261,31839
32620,20204,32006
32580,20186,31810
32621,20142,31940
32640,20169,31893
32629,20179,32004
32624,20230,31994
32704,20256,32028
32764,20295,31944
32769,20263,32053
32728,20244,32007
32704,20191,32061
32672,20168,32039
32730,20140,32084
32728,20164,32036
32808,20177,32109
32904,20231,32175
32846,20292,31930
32800,20279,32151
32808,20263,32146
32788,20245,32141
32772,20197,32107
32728,20148,32021
32740,20146,32046
32740,20144,32040
32816,20189,32148
32852,20224,32033
32860,20250,32097
32892,20277,32044
32868,20261,32072
32852,20244,31964
32836,20185,32224
32768,20154,32158
32776,20126,32229
32768,20145,31973
32780,20195,32133
32813,20230,31991
32879,20267,32068
32896,20276,32066
32932,20278,32144
32920,20231,32145
32893,20206,32164
32820,20162,32187
32824,20156,32159
32864,20140,32175
32872,20204,32152
32888,20221,32204
32860,20269,31948
32756,20276,32193
32696,20276,31932
32748,20215,32068
32724,20189,32020
32720,20140,32116
32704,20124,32124
32740,20133,32100
32781,20172,32093
32840,20223,32089
32848,20242,32097
32840,20274,32070
32824,20251,32061
32817,20229,32044
32832,20168,32042
32848,20138,32024
32849,20115,31944
32737,20135,31988
32756,20177,32031
32820,20209,31948
32844,20229,31839
32888,20266,31879
32908,20238,31744
32868,20235,32012
32856,20170,31905
32828,20153,31972
32832,20108,31896
32864,20137,31942
32860,20157,31888
32912,20210,31952
32908,20228,31673
32868,20257,31781
32796,20234,31721
32784,20226,31830
32784,20158,31836
32804,20140,31844
32789,20102,31912
32864,20132,31833
32888,20153,31698
32864,20189,31720
32860,20231,31696
32864,20236,31808
32864,20254,31695
32816,20203,31730
32772,20197,31650
32760,20143,31886
32780,20105,31820
32832,20132,31828
32868,20146,31767
32836,20213,31684
32764,20235,31872
32738,20258,31812
32761,20227,31774
32800,20218,31767
32812,20161,31697
32804,20137,31789
32832,20100,31732
32824,20127,31784
32864,20140,31685
32920,20227,31725
32992,20226,31681
33012,20261,31761
32909,20244,31604
32821,20226,31701
32820,20164,31666
32809,20145,31774
32836,20117,31788
32841,20127,31636
32868,20140,31836
32916,20199,31751
32912,20217,31828
32920,20260,31737
32912,20236,31622
32892,20218,31717
32846,20155,31732
32860,20116,31794
32877,20116,31692
32888,20110,31571
32900,20132,31671
32908,20188,31671
32950,20207,31564
32956,20245,31641
32945,20218,31676
32920,20212,31712
32840,20156,31622
32804,20152,31472
32805,20105,31653
32848,20098,31461
32860,20144,31677
32924,20185,31599
32960,20230,31480
32990,20244,31556
32972,20260,31596
32908,20196,31444
32836,20145,31573
32788,20126,31560
32744,20096,31487
32780,20126,31436
32772,20138,31333
32820,20165,31588
32878,20225,31496
32960,20228,31557
33037,20239,31466
32968,20189,31494
32804,20158,31254
32668,20108,31350
32708,20103,31287
32748,20097,31320
32816,20134,31326
32842,20188,31409
32880,20213,31367
32888,20248,31368
32916,20229,31399
32940,20210,31372
32904,20152,31397
32788,20125,31166
32776,20084,31337
32789,20117,31368
32828,20145,31185
32892,20170,31270
32901,20225,31205
32877,20223,31277
32860,20226,31249
32808,20188,31274
32784,20164,31164
32788,20103,31191
32740,20111,31063
32720,20099,31314
32732,20117,31236
32752,20183,31267
32784,20224,31221
32796,20229,31268
32768,20225,31036
32777,20181,31145
32748,20144,31080
32750,20116,31176
32712,20089,31165
32728,20112,31164
32752,20134,31145
32820,20182,31140
32840,20205,31000
32836,20238,31101
32784,20214,30981
32749,20180,31092
32728,20151,31168
32728,20121,30934
32762,20076,31073
32792,20090,31148
32804,20125,30932
32800,20187,31053
32783,20185,31118
32724,20222,30858
32692,20205,31046
32712,20182,30872
32604,20134,31028
32576,20093,30980
32600,20084,30832
32596,20121,30972
32609,20112,31045
32644,20169,30828
32720,20188,30972
32732,20228,30872
32704,20204,30983
32730,20173,31020
32681,20165,30985
32688,20102,31008
32668,20099,30828
32696,20077,30872
32776,20120,30852
32777,20153,30903
32788,20208,30812
32848,20212,30887
32860,20217,30868
32828,20172,30960
32821,20138,30838
32864,20092,30905
32912,20077,30932
33036,20074,30791
33048,20110,31012
33056,20150,30784
33164,20197,30895
33276,20224,30834
33364,20202,30930
33588,20182,30924
33920,20122,30791
34256,20096,31014
34692,20065,30788
35392,20077,30884
36136,20148,30823
36861,20151,30932
37620,20181,30956
38272,20218,31012
38752,20193,30956
38969,20189,30882
38872,20129,30916
38672,20149,30829
38288,20082,30873
37688,20074,30804
36856,20124,31030
35428,20148,30949
33692,20198,31010
31956,20205,30959
30624,20212,30953
30072,20172,30944
29972,20140,30830
30044,20084,30876
30228,20088,30844
30556,20079,30877
30909,20099,30841
31197,20144,30964
31428,20192,31054
31680,20199,30828
31960,20206,30988
32148,20161,30841
32304,20137,30962
32352,20082,30825
32396,20070,30981
32360,20068,30836
32352,20103,30926
32376,20169,30902
32436,20183,30972
32484,20199,30905
32448,20204,31084
32436,20156,31047
32424,20138,30916
32452,20096,31005
32441,20067,30869
32528,20077,30959
32584,20096,30933
32560,20158,31101
32580,20180,30891
32596,20212,31024
32588,20189,30897
32572,20180,31084
32544,20117,30933
32540,20103,31094
32584,20063,30900
32636,20092,31111
32694,20107,31098
32708,20173,31145
32737,20182,30966
32780,20207,31101
32826,20184,30941
32872,20181,31199
32876,20137,31137
32756,20079,31175
32724,20077,31113
32720,20071,30982
32636,20132,31160
32577,20145,30992
32648,20172,31172
32736,20192,30980
32772,20201,31057
32824,20156,31037
32761,20124,31073
32728,20093,30983
32748,20079,31025
32772,20055,31058
32840,20101,31109
32912,20175,30856
32984,20170,30926
33004,20202,30974
32984,20182,31005
32956,20171,31010
32928,20111,30965
32896,20084,31005
32900,20077,30804
32928,20057,30914
32992,20095,30892
33032,20159,30752
33052,20166,30877
33068,20196,30900
33064,20194,30756
33096,20178,30648
33108,20110,30702
33052,20078,30708
32936,20084,30719
32932,20061,30719
32992,20101,30528
33056,20151,30625
33132,20163,30692
33188,20202,30475
33236,20199,30508
33236,20150,30444
33168,20119,30540
33140,20071,30484
33146,20055,30513
33192,20057,30457
33276,20098,30289
33340,20121,30358
33240,20164,30364
33224,20205,30405
33272,20172,30417
33336,20155,30308
33364,20126,30369
33373,20066,30405
33300,20060,30159
33200,20053,30321
33220,20092,30133
33296,20137,30252
33385,20157,30212
33420,20188,30260
33468,20172,30306
33444,20158,30064
33436,20117,30184
33404,20087,30215
33341,20045,30195
33380,20066,30150
33345,20071,30161
33384,20133,30055
33412,20152,30095
33440,20181,29966
33436,20205,30006
33376,20154,29917
33316,20132,30095
33292,20061,29892
33284,20055,30024
33300,20044,29868
33276,20086,30039
33300,20115,29809
33340,20156,29944
33308,20168,29929
33260,20167,29820
33232,20152,29732
33153,20097,29908
32992,20079,29840
32880,20038,29707
32798,20039,29710
32832,20069,29633
32821,20100,29813
32772,20167,29728
32762,20180,29569
32724,20160,29636
32668,20139,29512
32624,20128,29564
32560,20060,29492
32396,20049,29574
32357,20043,29445
32356,20091,29598
32332,20114,29536
32276,20141,29377
32213,20174,29448
32216,20172,29332
32176,20137,29421
32108,20079,29388
32044,20056,29446
32024,20029,29286
32032,20032,29389
32020,20038,29250
32057,20113,29365
32108,20164,29237
32056,20176,29396
31924,20165,29180
31860,20125,29380
31848,20090,29308
31848,20045,29164
31892,20039,29196
31932,20025,29296
32004,20063,29218
32048,20103,29252
32068,20143,29120
32080,20178,29228
32084,20151,29286
32068,20132,29069
32036,20114,29266
32012,20044,29204
32000,20035,29189
32020,20027,29031
32076,20065,29208
32148,20096,29149
32200,20148,29029
32232,20156,29200
32230,20160,29130
32224,20122,29029
32196,20090,29124
32168,20040,28996
32108,20033,29191
32124,20021,29142
32160,20061,29148
32182,20095,29140
32264,20149,28992
32329,20162,29144
32268,20172,29041
32168,20125,28984
32208,20101,29082
32212,20038,28992
32197,20039,29078
32252,20033,29148
32272,20096,28988
32344,20114,29072
32345,20157,29004
32264,20166,29156
32196,20178,29172
32124,20131,29236
32132,20084,29191
32160,20053,29061
32220,20036,29198
32288,20024,29121
32352,20068,29180
32388,20116,29107
32364,20132,29226
32220,20168,29124
32136,20152,29268
32128,20143,29247
32132,20117,29256
32140,20041,29254
32140,20030,29310
32152,20028,29303
32172,20056,29327
32228,20107,29369
32236,20156,29172
32284,20158,29380
32272,20166,29341
32280,20158,29388
32220,20079,29213
32184,20057,29320
32176,20055,29198
32140,20031,29296
32165,20063,29223
32236,20132,29354
32308,20134,29238
32309,20178,29348
32357,20154,29240
32368,20133,29357
32309,20102,29392
32248,20047,29409
32196,20042,29392
32136,20031,29384
32208,20071,29280
32266,20095,29476
32328,20151,29420
32368,20160,29301
32416,20165,29423
32438,20132,29324
32404,20088,29471
32344,20068,29558
32288,20031,29510
32216,20027,29465
32216,20070,29548
32284,20125,29536
32316,20129,29447
32332,20164,29498
32372,20154,29460
32392,20133,29604
32344,20101,29508
32300,20047,29592
32296,20038,29541
32316,20025,29660
32328,20069,29583
32344,20098,29669
32366,20143,29663
32456,20169,29796
32449,20156,29884
32424,20141,29836
32421,20082,29784
32436,20053,29720
32480,20053,29812
32528,20036,29788
32548,20086,29999
32573,20103,29976
32488,20132,29853
32381,20164,29946
32428,20194,29914
32468,20133,29974
32464,20080,29960
32408,20052,30180
32428,20023,30152
32472,20036,30117
32520,20048,30151
32592,20113,30072
32590,20125,30173
32572,20174,30096
32544,20151,30278
32536,20135,30174
32468,20079,30294
32440,20048,30306
32424,20014,30372
32464,20034,30420
32520,20048,30367
32580,20109,30260
32656,20136,30319
32748,20173,30308
32782,20143,30420
32684,20139,30458
32500,20077,30444
32432,20052,30493
32464,20020,30435
32496,20028,30431
32550,20047,30304
32620,20102,30389
32673,20133,30297
32709,20158,30429
32729,20162,30465
32696,20131,30432
32624,20096,30442
32600,20038,30244
32576,20033,30372
32576,20017,30276
32601,20059,30327
32632,20115,30253
32660,20132,30365
32662,20158,30324
32646,20149,30364
32604,20145,30235
32552,20084,30360
32552,20054,30377
32604,20016,30377
32616,20029,30284
32676,20045,30348
32736,20097,30226
32756,20124,30311
32737,20165,30204
32620,20141,30420
32588,20135,30192
32552,20092,30313
32556,20071,30311
32576,20019,30389
32613,20021,30465
32609,20070,30245
32677,20084,30402
32724,20131,30436
32676,20160,30295
32652,20144,30420
32620,20117,30508
32568,20088,30275
32596,20039,30372
32632,20016,30449
32588,20038,30485
32528,20047,30552
32584,20097,30500
32632,20120,30551
32676,20153,30359
32644,20137,30449
32620,20121,30425
32612,20099,30565
32617,20045,30599
32609,20034,30412
32620,20007,30595
32688,20046,30581
32720,20081,30624
32720,20133,30537
32736,20137,30580
32704,20155,30588
32688,20112,30640
32664,20085,30613
32624,20030,30703
32632,20023,30786
32680,20013,30557
32684,20053,30740
32716,20077,30558
32760,20132,30697
32764,20138,30588
32780,20154,30748
32780,20119,30773
32764,20068,30705
32740,20045,30692
32772,20009,30618
32792,20033,30820
32840,20048,30814
32908,20078,30796
32992,20128,30820
33008,20137,30711
32932,20142,30817
32804,20108,30763
32716,20073,30836
32740,20031,30905
32820,20017,30850
32876,20057,30910
32924,20042,30853
32893,20070,30740
32844,20126,30812
32880,20134,30684
32820,20141,30821
32712,20113,30680
32726,20073,30800
32720,20053,30670
32692,20028,30894
32696,20036,30668
32736,20041,30842
32800,20088,30692
32848,20111,30748
32880,20145,30684
32860,20165,30776
32829,20109,30689
32804,20079,30809
32781,20074,30865
32752,20030,30828
32740,20029,30886
32780,20039,30811
32840,20081,30856
32872,20144,30808
32856,20140,30852
32848,20159,30798
32864,20109,30760
32858,20106,30776
32848,20035,30774
32824,20016,30799
32832,20007,30848
32873,20037,30795
32908,20079,30826
32912,20123,30772
32953,20132,30701
32944,20159,30777
32940,20137,30831
32884,20069,30584
32862,20038,30700
32860,20035,30625
32852,20008,30694
32908,20044,30701
32960,20079,30748
32969,20116,30804
33024,20164,30757
32988,20140,30617
32944,20108,30657
32905,20079,30596
32892,20059,30701
32884,20006,30624
32900,20038,30709
32926,20055,30760
32920,20117,30660
32865,20121,30665
32896,20183,30636
32960,20135,30761
32932,20116,30852
32804,20069,30622
32792,20036,30860
32808,20009,30807
32848,20012,30778
32900,20036,30765
32956,20100,30694
33020,20129,30831
33044,20136,30727
33013,20141,30810
32948,20109,30755
32880,20077,30844
32840,20028,30795
32848,20015,30868
32864,20005,30774
32900,20045,31038
32908,20073,30983
32928,20121,31020
32960,20138,31025
32956,20141,30947
32916,20108,31037
32888,20099,31089
32884,20052,31052
32860,20037,31072
32852,20019,30961
32864,20060,31088
32888,20079,31073
32920,20140,31149
32952,20149,31087
32992,20141,31328
32992,20133,31296
32920,20109,31324
32912,20038,31336
32968,20021,31342
32946,20004,31205
32996,20047,31476
33032,20073,31437
33064,20130,31421
33040,20135,31457
33012,20154,31375
32960,20127,31435
32916,20092,31431
32868,20034,31548
32868,20024,31473
32857,20033,31455
32848,20035,31588
32848,20094,31672
32865,20136,31500
32940,20136,31663
32924,20149,31756
32900,20106,31566
32932,20091,31716
33000,20061,31769
33041,20005,31620
33012,20017,31754
32948,20036,31856
32904,20085,31798
32928,20112,31836
33020,20144,31820
33012,20164,31744
33008,20116,31822
32928,20092,31694
32884,20061,31920
32864,20032,31701
32884,20036,31821
32976,20038,31796
33132,20100,31860
33240,20133,31757
33344,20144,32013
33437,20157,31797
33514,20137,31879
33600,20079,31836
33808,20044,31980
34088,20046,32036
34392,20016,31816
34848,20069,31950
35524,20079,31917
36212,20135,32017
36860,20145,32034
37532,20151,32068
38092,20127,32061
38556,20092,32071
38752,20099,32036
38708,20039,32080
38520,20020,32009
38076,20077,32161
37452,20091,31981
36508,20146,32091
35224,20155,32064
33704,20173,32165
32036,20145,32263
30660,20085,32090
30048,20052,32222
29960,20049,32060
30056,20035,32364
30320,20068,32305
30640,20103,32353
30992,20145,32322
31300,20161,32421
31512,20149,32372
31772,20133,32342
32020,20124,32380
32212,20061,32322
32380,20047,32340
32460,20024,32276
32536,20087,32537
32536,20088,32435
32520,20150,32375
32520,20161,32391
32544,20169,32321
32592,20132,32565
32624,20100,32340
32592,20047,32436
32512,20032,32399
32540,20020,32578
32516,20060,32525
32540,20084,32587
32620,20141,32517
32704,20152,32597
32756,20158,32311
32756,20128,32569
32736,20100,32334
32660,20052,32559
32588,20044,32480
32576,20039,32373
32628,20090,32472
32676,20094,32319
32748,20124,32554
32780,20174,32292
32789,20181,32431
32788,20145,32388
32792,20132,32404
32740,20064,32300
32752,20022,32560
32784,20037,32508
32792,20053,32500
32780,20124,32505
32816,20138,32570
32848,20150,32323
32856,20169,32437
32848,20128,32343
32844,20112,32471
32845,20056,32462
32882,20022,32334
32860,20046,32476
32824,20052,32437
32820,20116,32421
32900,20136,32389
32876,20189,32305
32868,20161,32377
32856,20132,32383
32832,20100,32364
32832,20050,32330
32781,20043,32357
32796,20052,32428
32872,20047,32140
32934,20097,32261
33016,20148,32160
33096,20153,32209
33132,20163,32264
33056,20144,32269
33038,20091,32333
33024,20060,32085
32892,20036,32124
32858,20020,32015
32928,20056,32134
33022,20105,32056
33096,20125,32149
33148,20170,32220
33184,20173,32100
33212,20129,31997
33148,20101,32000
33084,20071,32064
33020,20021,32036
33000,20032,31829
33068,20045,32041
33136,20087,31829
33216,20162,31925
33272,20156,31869
33276,20160,31943
33308,20144,31924
33288,20092,31781
33320,20062,31888
33372,20025,31852
33404,20029,31866
33421,20063,31923
33388,20085,31653
33388,20127,31790
33364,20179,31884
33416,20167,31609
33396,20127,31788
33352,20108,31596
33344,20069,31669
33368,20016,31623
33388,20032,31652
33440,20040,31588
33477,20087,31613
33500,20119,31550
33508,20167,31706
33488,20148,31525
33472,20133,31605
33440,20109,31496
33432,20045,31629
33440,20025,31623
33468,20050,31596
33457,20059,31653
33388,20103,31566
33240,20124,31558
33268,20161,31348
33344,20144,31476
33384,20127,31375
33340,20112,31477
33160,20038,31540
33052,20028,31268
33000,20006,31353
32977,20044,31288
32981,20074,31388
32945,20135,31382
32929,20151,31244
32900,20145,31318
32845,20135,31204
32740,20087,31420
32692,20068,31326
32612,20037,31177
32548,20014,31207
32532,20057,31117
32546,20081,31316
32628,20135,31248
32592,20159,31236
32464,20169,31236
32388,20138,31141
32378,20119,31192
32336,20036,31176
32308,20032,31175
32280,20014,31049
32224,20055,31116
32252,20075,30993
32244,20129,31129
32232,20142,31124
32200,20140,31028
32184,20124,31022
32096,20113,30946
32020,20052,30999
32018,20036,30916
32040,20015,31049
32108,20035,31023
32192,20084,30920
32208,20143,31015
32260,20153,30940
32224,20168,30996
32188,20133,30902
32184,20103,30985
32144,20052,30864
32132,20021,31023
32156,20013,30977
32224,20029,30933
32288,20079,30961
32340,20109,30844
32260,20147,30881
32253,20167,30804
32224,20132,30876
32216,20078,30741
32257,20057,30844
32328,20036,30732
32360,20016,30853
32390,20049,30680
32352,20075,30868
32256,20127,30792
32280,20142,30676
32296,20156,30772
32320,20144,30644
32320,20084,30747
32332,20049,30790
32320,20017,30733
32328,20022,30628
32400,20036,30679
32468,20086,30635
32516,20141,30666
32552,20148,30580
32620,20169,30636
32576,20123,30556
32440,20103,30600
32416,20044,30564
32428,20025,30637
32437,20035,30667
32460,20037,30644
32500,20100,30599
32492,20122,30627
32492,20160,30607
32448,20151,30637
32413,20136,30672
32400,20092,30644
32377,20059,30505
32342,20019,30592
32413,20024,30484
32412,20039,30601
32480,20087,30476
32516,20149,30695
32464,20152,30662
32441,20155,30636
32460,20137,30616
32432,20093,30505
32392,20060,30575
32364,20025,30545
32376,20029,30679
32416,20044,30615
32480,20092,30700
32544,20164,30596
32536,20173,30700
32552,20156,30608
32508,20137,30710
32396,20125,30700
32352,20071,30717
32388,20052,30621
32448,20044,30797
32517,20076,30653
32544,20098,30821
32548,20160,30657
32440,20152,30767
32346,20175,30702
32360,20134,30837
32384,20109,30884
32356,20075,30881
32380,20031,30940
32384,20032,30887
32413,20053,30886
32488,20101,30901
32516,20144,30978
32544,20159,30916
32524,20167,30896
32484,20164,30912
32436,20116,30945
32404,20080,30737
32408,20044,30988
32417,20048,30927
32424,20058,30799
32460,20090,30949
32520,20137,30789
32544,20172,30861
32533,20167,30836
32536,20159,30945
32500,20124,30978
32445,20071,30940
32440,20071,31004
32468,20051,30945
32498,20077,30925
32549,20086,30920
32544,20143,30975
32524,20154,31001
32488,20170,30844
32456,20157,30972
32392,20100,30872
32372,20071,30991
32388,20033,30903
32420,20052,31020
32480,20073,31045
32520,20093,31040
32532,20147,31040
32552,20158,31024
32500,20184,30910
32460,20145,31023
32472,20127,30904
32508,20063,31012
32540,20047,30949
32596,20032,30997
32576,20058,30936
32520,20095,31140
32484,20151,30932
32550,20185,31087
32564,20183,31109
32536,20145,31177
32532,20117,30928
32476,20067,31084
32488,20045,30920
32452,20060,31086
32488,20056,30908
32504,20092,31124
32552,20143,30896
32592,20159,31076
32648,20172,30884
32664,20183,31008
32679,20113,31045
32692,20067,31087
32688,20049,30870
32564,20031,31076
32536,20060,30813
32576,20119,30920
32588,20134,30833
32572,20168,30934
32544,20169,30804
32550,20161,30924
32548,20100,30743
32564,20076,30816
32580,20036,30757
32608,20034,30917
32608,20053,30884
32636,20093,30777
32644,20151,30847
32704,20160,30727
32676,20177,30844
32613,20143,30852
32544,20108,30848
32500,20082,30884
32532,20038,30830
32528,20052,30864
32592,20052,30821
32656,20111,30713
32716,20132,30836
32684,20171,30836
32645,20164,30839
32622,20157,30892
32596,20124,30824
32608,20065,30847
32609,20048,30839
32576,20025,30767
32568,20065,30808
32646,20079,30719
32701,20142,30759
32756,20165,30844
32664,20165,30726
32648,20149,30765
32636,20103,30727
32613,20068,30908
32564,20029,30869
32576,20045,30686
32600,20056,30874
32672,20109,30839
32677,20144,30693
32696,20181,30945
32676,20168,30849
32704,20142,30873
32712,20124,30820
32716,20068,30858
32796,20060,30767
32808,20028,30884
32816,20062,30951
32696,20086,30888
32710,20133,30821
32644,20152,30837
32612,20169,30717
32596,20166,30837
32544,20111,30736
32544,20079,30950
32540,20037,30900
32608,20054,30743
32656,20055,30992
32697,20087,30924
32734,20149,30811
32730,20169,30999
32764,20161,30940
32732,20142,30836
32685,20105,30880
32632,20069,30851
32621,20071,30996
32644,20043,31086
32672,20078,31029
32702,20089,31033
32752,20155,30905
32792,20170,31151
32804,20186,31085
32769,20154,31081
32714,20116,31007
32652,20064,31135
32640,20052,31196
32664,20055,31050
32712,20056,31119
32744,20100,31057
32792,20135,31264
32808,20167,31095
32796,20184,31183
32748,20146,31145
32720,20116,31367
32700,20065,31338
32686,20048,31309
32700,20060,31367
32720,20054,31367
32732,20103,31410
32716,20130,31468
32777,20162,31333
32828,20199,31487
32857,20156,31503
32764,20153,31512
32740,20082,31352
32761,20036,31604
32797,20046,31482
32782,20064,31554
32720,20116,31599
32688,20138,31542
32692,20182,31589
32753,20164,31572
32804,20160,31660
32700,20111,31540
32628,20090,31800
32597,20049,31796
32644,20036,31695
32736,20064,31796
32800,20089,31724
32814,20143,31839
32824,20166,31759
32812,20173,31831
32816,20167,31841
32792,20113,31966
32768,20073,31892
32748,20037,31993
32788,20047,31890
32796,20055,32127
32760,20102,31932
32788,20159,32197
32772,20164,31948
32748,20188,32250
32757,20167,32206
32724,20113,32318
32724,20089,32248
32693,20040,32349
32696,20053,32144
32676,20071,32357
32693,20090,32195
32692,20140,32287
32708,20189,32294
32741,20170,32357
32736,20167,32317
32688,20112,32456
32668,20095,32308
32716,20044,32425
32777,20057,32439
32804,20090,32530
32748,20110,32429
32776,20140,32712
32800,20188,32466
32808,20175,32732
32768,20168,32682
32696,20121,32646
32616,20092,32704
32586,20055,32633
32618,20054,32783
32616,20079,32878
32636,20100,32712
32656,20151,32854
32676,20191,32892
32720,20173,32793
32790,20167,32916
32780,20141,33053
32762,20077,32774
32720,20070,33023
32657,20068,32943
32582,20063,32962
32584,20115,33080
32664,20163,33208
32704,20175,32952
32696,20191,33093
32684,20160,33093
32668,20132,33233
32644,20106,33261
32648,20070,33086
32661,20069,33309
32672,20071,33140
32708,20121,33336
32816,20138,33300
32876,20181,33446
32957,20180,33530
32984,20173,33495
32980,20127,33429
33064,20101,33477
33106,20049,33573
33224,20057,33621
33396,20064,33728
33636,20111,33676
33976,20190,33808
34272,20183,33562
34736,20217,33786
35380,20181,33776
35960,20180,33732
36560,20098,33844
37144,20086,33795
37696,20056,33913
38117,20073,33997
38336,20137,33981
38328,20144,34033
38110,20196,34118
37612,20186,34105
36800,20190,34188
35740,20133,34175
34420,20117,34188
32925,20057,34230
31329,20067,34363
30225,20069,34276
29872,20119,34412
29900,20154,34348
30008,20194,34284
30304,20188,34201
30660,20176,34385
31004,20145,34471
31308,20089,34494
31550,20077,34454
31820,20068,34521
32092,20071,34556
32256,20112,34609
32316,20150,34591
32388,20188,34614
32480,20197,34645
32468,20175,34677
32420,20155,34677
32398,20090,34765
32404,20074,34724
32412,20054,34729
32424,20102,34631
32464,20110,34646
32540,20165,34744
32588,20184,34718
32621,20207,34765
32656,20204,34689
32644,20149,34691
32636,20134,34575
32576,20069,34797
32564,20071,34557
32614,20103,34727
32640,20117,34812
32692,20167,34806
32724,20220,34823
32776,20200,34804
32776,20176,34908
32748,20159,34810
32698,20103,34751
32640,20077,34838
32636,20060,34871
32680,20102,34636
32700,20118,34764
32776,20167,34781
32829,20216,34876
32864,20217,34855
32872,20201,34896
32844,20140,34991
32792,20114,34684
32708,20066,34904
32676,20072,34799
32684,20114,34848
32752,20119,34985
32852,20166,34789
32928,20205,34866
32942,20245,34872
32864,20189,34884
32809,20168,34949
32832,20107,34881
32800,20086,34889
32817,20084,34812
32828,20122,34624
32896,20126,34840
32936,20176,34852
32944,20209,34796
32928,20209,34834
32944,20189,34823
32936,20169,34780
32924,20131,34588
32929,20079,34700
32932,20085,34679
32948,20092,34660
32976,20134,34548
32996,20191,34695
33050,20199,34721
33120,20218,34716
33128,20187,34787
33156,20164,34670
33116,20144,34721
33044,20076,34517
32896,20089,34601
32928,20084,34645
33032,20144,34404
33112,20162,34496
33144,20204,34549
33212,20221,34576
33270,20189,34632
33316,20172,34360
33264,20133,34457
33192,20080,34504
33116,20078,34532
33088,20109,34576
33140,20122,34528
33160,20176,34521
33226,20197,34512
33280,20218,34497
33304,20191,34500
33264,20166,34504
33261,20116,34534
33248,20089,34620
33276,20088,34533
33308,20085,34581
33404,20149,34532
33456,20163,34644
33433,20205,34543
33316,20226,34470
33284,20193,34486
33309,20165,34541
33316,20104,34618
33300,20093,34608
33312,20092,34685
33324,20088,34412
33328,20126,34514
33328,20190,34616
33356,20197,34628
33346,20220,34664
33324,20183,34546
33244,20168,34628
33228,20145,34734
33180,20081,34519
33146,20079,34636
33156,20092,34716
33168,20131,34649
33156,20170,34660
33140,20214,34637
33080,20205,34636
33028,20199,34628
32904,20152,34733
32792,20117,34399
32748,20081,34729
32744,20072,34633
32736,20090,34632
32772,20132,34623
32768,20159,34713
32740,20205,34384
32660,20231,34510
32516,20188,34494
32516,20166,34576
32448,20149,34605
32368,20087,34350
32288,20084,34465
32244,20085,34519
32261,20132,34564
32314,20176,34582
32324,20220,34439
32352,20207,34502
32420,20203,34504
32380,20199,34504
32244,20123,34533
32112,20095,34258
32112,20103,34447
32160,20093,34447
32228,20146,34447
32276,20167,34529
32324,20214,34189
32340,20231,34440
32317,20204,34173
32332,20182,34350
32320,20131,34248
32335,20095,34372
32330,20079,34445
32324,20108,34241
32336,20159,34290
32365,20180,34268
32396,20225,34333
32384,20219,34308
32352,20213,34210
32356,20168,34309
32384,20125,34412
32400,20116,34091
32400,20078,34241
32404,20104,34260
32444,20129,34297
32452,20181,34340
32432,20227,34127
32440,20218,34300
32412,20205,34341
32398,20191,34114
32332,20121,34407
32328,20105,34110
32300,20080,34396
32360,20116,34162
32412,20135,34263
32492,20193,34273
32556,20206,34360
32544,20227,34281
32456,20203,34396
32448,20168,34413
32496,20143,34320
32517,20100,34337
32530,20103,34340
32460,20099,34449
32428,20145,34527
32412,20174,34281
32444,20214,34544
32448,20216,34428
32444,20205,34468
32440,20161,34473
32464,20128,34566
32512,20095,34560
32512,20092,34548
32432,20096,34520
32468,20146,34510
32532,20180,34532
32561,20223,34601
32580,20220,34652
32596,20219,34638
32561,20162,34645
32529,20125,34516
32497,20092,34543
32496,20091,34470
32504,20131,34596
32524,20135,34701
32528,20189,34637
32596,20212,34703
32596,20231,34492
32592,20195,34575
32548,20176,34521
32544,20127,34522
32548,20106,34484
32580,20102,34629
32625,20103,34680
32652,20140,34390
32653,20170,34668
32636,20217,34388
32608,20221,34604
32588,20207,34613
32568,20172,34624
32528,20158,34607
32508,20101,34628
32496,20103,34599
32506,20108,34624
32572,20156,34588
32644,20194,34596
32656,20207,34544
32672,20230,34516
32672,20208,34568
32700,20176,34616
32656,20150,34584
32592,20113,34516
32492,20108,34556
32368,20112,34537
32376,20132,34532
32448,20192,34484
32509,20214,34549
32544,20239,34615
32552,20236,34593
32540,20184,34629
32488,20134,34540
32472,20108,34470
32464,20114,34540
32460,20117,34503
32476,20164,34552
32548,20197,34505
32628,20228,34582
32632,20225,34591
32600,20220,34608
32444,20169,34605
32440,20152,34580
32476,20102,34603
32504,20096,34631
32512,20144,34720
32564,20141,34406
32596,20197,34628
32604,20214,34552
32576,20241,34544
32540,20230,34606
32542,20174,34668
32520,20153,34590
32496,20105,34589
32492,20104,34551
32544,20103,34609
32604,20156,34642
32676,20179,34678
32692,20235,34647
32673,20217,34760
32637,20216,34817
32608,20209,34782
32604,20130,34740
32588,20121,34596
32548,20090,34750
32572,20120,34757
32637,20135,34784
32676,20189,34788
32712,20211,34804
32732,20236,34673
32718,20239,34880
32664,20178,34888
32600,20161,34889
32568,20109,34894
32612,20108,34951
32721,20101,34964
32808,20164,34940
32724,20182,34884
32544,20239,35150
32524,20231,35041
32544,20206,34976
32548,20184,35039
32548,20133,34871
32577,20111,35105
32572,20085,35105
32516,20119,35214
32492,20129,35124
32544,20193,35228
32596,20204,35140
32644,20239,35241
32640,20221,34912
32600,20174,35164
32628,20131,34981
32648,20104,35040
32632,20108,35052
32684,20111,35061
32724,20160,35024
32728,20178,35172
32736,20226,35028
32704,20252,35124
32689,20209,35156
32672,20177,35143
32668,20159,35036
32668,20097,35110
32672,20094,35133
32700,20124,35216
32708,20143,34892
32768,20204,35238
32776,20213,35120
32812,20237,35193
32796,20206,34885
32768,20186,35180
32768,20134,35084
32768,20121,35088
32772,20112,34863
32780,20104,35196
32832,20152,35103
32832,20181,35156
32816,20229,35104
32749,20231,35079
32705,20231,35108
32708,20182,35199
32744,20150,34885
32784,20138,35084
32713,20105,35055
32592,20132,35111
32560,20151,35172
32634,20204,35119
32704,20224,35024
32780,20245,35033
32872,20220,35076
32904,20197,35113
32796,20166,35117
32654,20109,35188
32652,20105,34933
32692,20119,35055
32740,20164,34906
32789,20194,35021
32832,20238,35090
32844,20266,35132
32844,20239,35215
32824,20192,34876
32820,20152,35021
32741,20140,35005
32720,20118,34989
32708,20127,34892
32736,20168,35189
32760,20197,35073
32796,20262,35133
32796,20255,35052
32796,20261,35112
32748,20208,35037
32736,20189,35054
32704,20131,35007
32724,20137,34897
32748,20140,34889
32780,20165,34788
32780,20216,34997
32824,20246,34784
32844,20268,34893
32816,20285,34879
32776,20209,34934
32775,20184,35028
32752,20137,34668
32748,20137,34817
32740,20141,34680
32776,20191,34785
32832,20213,34780
32832,20260,34772
32824,20264,34799
32864,20265,34830
32852,20246,34930
32820,20188,34617
32828,20150,34800
32816,20142,34741
32809,20143,34772
32800,20196,34800
32788,20256,34823
32828,20274,34889
32842,20300,34814
32840,20261,34885
32860,20241,34666
32844,20189,34746
32837,20164,34742
32868,20144,34792
32912,20174,34784
32948,20239,34808
32980,20257,34884
32968,20296,34598
32912,20288,34709
32966,20284,34711
32976,20268,34799
32916,20208,34900
32860,20177,34572
32888,20156,34756
32900,20176,34694
32908,20201,34765
32901,20261,34781
32952,20305,34568
32980,20300,34709
32952,20294,34708
32892,20252,34764
32824,20215,34720
32808,20182,34757
32844,20176,34705
32884,20188,34776
32872,20231,34708
32848,20261,34815
32852,20313,34567
32854,20312,34912
32844,20321,34806
32832,20269,34864
32812,20241,34728
32792,20233,34800
32756,20188,34882
32777,20196,34804
32788,20248,34844
32800,20277,34677
32857,20332,34790
32892,20333,34872
32888,20324,34568
32836,20285,34717
32777,20258,34580
32772,20229,34667
32757,20198,34671
32732,20241,34746
32741,20260,34616
32800,20321,34653
32844,20348,34644
32881,20372,34705
32880,20340,34738
32820,20332,34721
32776,20269,34720
32748,20258,34708
32740,20225,34662
32756,20248,34697
32724,20271,34700
32781,20324,34728
32768,20342,34676
32764,20381,34754
32776,20376,34832
32780,20320,34656
32736,20295,34685
32709,20273,34631
32701,20241,34862
32718,20286,34767
32724,20295,34860
32748,20348,34689
32824,20371,34689
32942,20398,34695
32988,20374,34749
33040,20356,34724
33085,20298,34789
33188,20278,34874
33280,20253,34823
33372,20287,34724
33500,20308,34840
33664,20366,34889
33929,20402,34757
34201,20399,34834
34528,20409,34853
35004,20383,34828
35568,20318,34756
36124,20284,34816
36720,20292,34883
37296,20287,34904
37792,20333,34868
38048,20400,34805
37988,20412,34863
37704,20429,34636
37312,20427,34838
36636,20413,34924
35780,20345,34768
34692,20316,34875
33292,20316,34892
31676,20318,34868
30416,20351,34924
29908,20404,34852
29900,20429,34920
30016,20453,34845
30180,20440,34727
30484,20423,34916
30868,20372,34834
31206,20350,34784
31468,20333,34725
31636,20332,34556
31845,20381,34874
32088,20420,34752
32280,20485,34668
32428,20471,34652
32500,20487,34629
32492,20428,34703
32452,20404,34684
32421,20354,34684
32400,20358,34617
32420,20372,34621
32448,20418,34545
32484,20439,34616
32544,20493,34530
32556,20487,34520
32545,20493,34500
32564,20452,34564
32520,20421,34476
32484,20380,34596
32509,20380,34311
32544,20384,34519
32564,20425,34291
32600,20463,34561
32616,20523,34457
32644,20526,34255
32696,20524,34380
32718,20479,34516
32704,20456,34449
32680,20421,34436
32672,20394,34326
32640,20433,34421
32684,20455,34284
32680,20494,34501
32709,20553,34350
32732,20565,34380
32772,20543,34311
32772,20532,34453
32716,20479,34352
32708,20460,34244
32698,20443,34336
32716,20464,34309
32712,20484,34225
32744,20545,34257
32812,20564,34217
32834,20602,34196
32824,20585,34124
32788,20566,34120
32792,20504,34084
32812,20493,34071
32832,20463,33937
32880,20493,34186
32864,20524,33892
32812,20578,34145
32865,20606,34084
32888,20628,34165
32920,20604,33851
32916,20583,34120
32921,20529,34015
32992,20526,33890
32992,20501,33956
33056,20522,34022
33080,20549,33940
33068,20604,33967
33068,20625,33904
33116,20659,33932
33116,20642,33846
33100,20603,33654
32960,20572,33881
32812,20535,33772
32872,20535,33664
32948,20537,33738
33000,20584,33709
33076,20641,33689
33140,20660,33560
33180,20690,33660
33228,20679,33532
33200,20668,33535
33164,20599,33476
33152,20564,33680
33168,20557,33568
33156,20569,33573
33196,20624,33444
33248,20663,33513
33265,20689,33376
33272,20735,33446
33288,20709,33444
33272,20669,33248
33224,20625,33476
33228,20611,33383
33220,20588,33362
33280,20596,33308
33296,20625,33385
33336,20691,33318
33377,20726,33245
33440,20724,33213
33440,20739,33274
33368,20693,33292
33332,20668,33233
33304,20623,33191
33312,20629,33160
33352,20626,33049
33348,20655,33197
33360,20723,33142
33376,20743,33180
33365,20778,33108
33340,20752,33000
33280,20719,33076
33228,20684,32856
33220,20677,33140
33185,20645,33023
33164,20666,32964
33201,20680,32888
33200,20744,32933
33229,20790,33001
33184,20794,32964
33104,20783,32961
32868,20771,32812
32768,20730,32868
32764,20674,32793
32772,20686,32854
32764,20679,32748
32800,20741,32791
32804,20770,32693
32797,20836,32796
32648,20821,32687
32524,20831,32772
32492,20774,32772
32504,20760,32775
32509,20709,32772
32464,20709,32589
32388,20711,32622
32353,20757,32655
32365,20788,32680
32388,20844,32751
32336,20847,32460
32340,20852,32647
32320,20813,32420
32292,20790,32567
32268,20750,32398
32292,20751,32493
32308,20748,32437
32348,20788,32532
32344,20812,32493
32352,20874,32504
32352,20876,32421
32332,20882,32439
32317,20839,32367
32308,20812,32444
32284,20768,32477
32273,20759,32256
32288,20798,32510
32296,20809,32418
32342,20847,32376
32389,20897,32401
32428,20905,32364
32420,20913,32340
32425,20872,32245
32444,20852,32332
32452,20799,32216
32480,20797,32233
32480,20807,32135
32356,20856,32273
32286,20887,32164
32374,20916,32388
32405,20950,32284
32428,20928,32141
32428,20919,32295
32388,20865,32286
32356,20841,32330
32384,20820,32295
32432,20821,32324
32460,20876,32287
32544,20909,32344
32584,20956,32281
32588,20965,32252
32608,20962,32300
32612,20950,32348
32608,20895,32292
32576,20849,32313
32560,20861,32269
32584,20860,32101
32588,20912,32392
32508,20935,32313
32436,21005,32367
32496,20999,32336
32508,21012,32412
32508,20964,32342
32489,20939,32333
32488,20902,32317
32486,20877,32228
32468,20893,32292
32469,20921,32233
32516,20972,32349
32553,21002,32432
32592,21039,32348
32584,21018,32366
32594,20999,32351
32524,20946,32380
32500,20935,32142
32504,20902,32342
32541,20938,32140
32596,20950,32365
32624,20993,32184
32660,21047,32316
32688,21073,32356
32676,21052,32303
32676,21018,32257
32648,20986,32296
32638,20946,32292
32636,20947,32287
32584,20942,32228
32508,20990,32161
32496,21020,32257
32536,21076,32172
32588,21080,32211
32566,21084,32181
32548,21040,32285
32556,21006,32361
32524,20972,32089
32456,20972,32304
32480,20999,32120
32536,21017,32360
32596,21049,32120
32628,21087,32332
32592,21122,32176
32520,21097,32279
32472,21090,32201
32449,21024,32292
32448,21007,32364
32432,21012,32132
32456,20999,32225
32485,21052,32117
32516,21078,32367
32564,21136,32119
32580,21142,32336
32584,21144,32180
32585,21091,32304
32601,21059,32343
32612,21015,32152
32572,21016,32284
32476,21030,32310
32417,21046,32156
32420,21103,32263
32472,21149,32284
32509,21150,32128
32524,21145,32045
32524,21118,32213
32480,21087,32231
32496,21040,32220
32448,21029,32088
32468,21044,32207
32560,21084,32236
32604,21116,32061
32580,21164,32164
32580,21188,32167
32617,21161,32148
32612,21143,32055
32624,21105,32004
32608,21063,32116
32580,21059,32172
32580,21069,31972
32560,21087,32049
32508,21144,31916
32528,21173,31964
32542,21200,31879
32560,21184,32007
32536,21166,31989
32536,21115,32059
32552,21084,31780
32549,21065,31980
32568,21068,31812
32624,21114,31905
32649,21169,31912
32695,21189,31900
32764,21211,31789
32820,21221,31742
32756,21173,31857
32600,21142,31887
32622,21111,31821
32620,21117,31763
32608,21091,31872
32608,21121,31710
32608,21176,31788
32612,21221,31688
32649,21228,31705
32676,21219,31740
32672,21195,31642
32633,21146,31580
32616,21110,31628
32616,21109,31592
32620,21108,31629
32652,21148,31552
32720,21185,31581
32775,21231,31520
32744,21241,31620
32720,21244,31505
32717,21204,31576
32640,21174,31448
32608,21132,31689
32644,21131,31609
32684,21135,31568
32685,21176,31556
32728,21204,31383
32764,21232,31630
32784,21268,31536
32764,21249,31601
32780,21233,31359
32788,21183,31564
32777,21183,31313
32793,21126,31497
32872,21148,31263
32900,21168,31375
32905,21221,31261
32800,21251,31292
32701,21277,31181
32748,21263,31359
32800,21238,31132
32784,21195,31260
32748,21171,31136
32736,21137,31148
32760,21167,31052
32784,21180,31267
32812,21228,31229
32820,21277,31153
32836,21286,31192
32848,21303,31109
32832,21260,31149
32778,21209,31055
32741,21183,30900
32716,21154,30964
32736,21175,30845
32780,21192,30950
32833,21263,30844
32840,21285,30945
32848,21317,30710
32881,21298,30790
32836,21262,30656
32820,21232,30719
32768,21186,30628
32741,21175,30737
32720,21178,30649
32752,21228,30593
32769,21259,30666
32836,21311,30574
32892,21334,30516
32912,21308,30573
32832,21284,30494
32744,21232,30529
32736,21218,30348
32740,21185,30397
32784,21194,30302
32797,21228,30413
32812,21277,30276
32844,21308,30381
32896,21336,30384
32908,21321,30215
32860,21296,30265
32796,21248,30140
32765,21231,30237
32752,21192,30197
32804,21215,30105
32848,21235,30114
32856,21295,30087
32836,21317,30156
32848,21348,30040
32860,21356,30053
32876,21308,29914
32952,21284,29961
32940,21237,29898
32942,21209,30010
32900,21223,30046
32920,21246,29824
32957,21314,29821
32969,21346,29955
32996,21352,29948
33028,21359,29768
33028,21313,29893
33016,21290,29780
32980,21236,29753
32908,21231,29838
32824,21231,29808
32809,21271,29853
32812,21336,29659
32848,21349,29788
32916,21367,29773
32938,21357,29665
32932,21337,29650
32896,21285,29741
32856,21266,29752
32828,21224,29561
32780,21253,29689
32760,21291,29653
32826,21329,29625
32836,21355,29660
32820,21388,29615
32832,21401,29536
32848,21341,29614
32812,21316,29573
32712,21265,29436
32668,21260,29592
32732,21249,29488
32752,21289,29452
32788,21320,29553
32836,21373,29584
32860,21387,29365
32852,21384,29425
32840,21350,29398
32852,21322,29492
32862,21276,29384
32844,21272,29325
32820,21257,29458
32804,21299,29384
32782,21335,29364
32788,21377,29300
32792,21409,29361
32791,21384,29295
32768,21364,29274
32772,21313,29366
32732,21281,29359
32703,21266,29364
32732,21281,29268
32760,21311,29217
32805,21340,29204
32836,21383,29254
32896,21396,29244
32920,21397,29302
32900,21362,29223
32832,21341,29130
32768,21290,29264
32752,21286,29276
32733,21268,29117
32736,21312,29253
32768,21349,29130
32804,21388,29079
32836,21396,29214
32852,21417,29240
32884,21383,29044
32972,21344,29092
33076,21322,29022
33153,21279,29064
33262,21284,29004
33384,21321,29039
33572,21353,28973
33724,21391,29037
33932,21417,28988
34184,21405,29068
34468,21390,28940
34872,21333,29053
35384,21306,29001
35904,21275,28871
36408,21305,29006
36872,21326,28911
37296,21388,28885
37516,21414,28929
37498,21444,29005
37276,21414,28796
36860,21401,28935
36200,21356,28935
35409,21320,28759
34488,21284,28889
33376,21304,28880
32029,21348,28709
30696,21368,28852
29912,21412,28770
29876,21421,28849
29942,21423,28656
29968,21383,28801
30237,21354,28815
30632,21306,28628
31036,21296,28718
31420,21292,28751
31684,21329,28580
31972,21363,28725
32232,21417,28670
32396,21417,28648
32484,21424,28527
32480,21383,28637
32416,21349,28658
32356,21305,28500
32364,21292,28532
32424,21321,28586
32480,21326,28423
32540,21382,28541
32572,21400,28452
32568,21432,28349
32544,21420,28394
32492,21388,28423
32472,21361,28453
32516,21310,28281
32542,21297,28368
32592,21310,28295
32624,21328,28374
32648,21374,28167
32638,21405,28316
32644,21431,28196
32660,21432,28278
32648,21390,28093
32628,21360,28217
32608,21331,28181
32616,21286,28187
32660,21305,28166
32684,21345,28005
32728,21375,28100
32792,21409,28098
32800,21437,27973
32796,21420,28065
32788,21423,27908
32760,21365,28063
32744,21316,28008
32769,21300,27872
32796,21297,27999
32812,21364,28013
32832,21383,27984
32884,21413,27868
32918,21446,27835
32912,21428,27895
32840,21425,27844
32816,21361,27870
32796,21316,27815
32820,21318,27705
32768,21307,27846
32828,21348,27844
32957,21389,27710
33044,21447,27756
33080,21439,27637
33108,21452,27770
33084,21402,27789
32972,21375,27602
32800,21324,27655
32780,21324,27568
32838,21317,27665
32900,21335,27517
32926,21388,27638
32936,21419,27669
32948,21447,27492
32962,21452,27560
32928,21414,27429
32940,21390,27516
32960,21328,27365
32949,21328,27508
32937,21309,27493
32960,21362,27282
33004,21393,27436
33048,21438,27348
33108,21455,27231
33136,21431,27298
33078,21412,27183
33004,21365,27305
32965,21340,27292
32936,21309,27124
32988,21309,27205
33033,21344,27095
33088,21381,27197
33156,21429,27074
33196,21454,27176
33192,21431,27033
33188,21415,27149
33132,21373,27013
33116,21353,27130
33088,21316,27140
33084,21315,26958
33136,21358,27113
33265,21388,27072
33304,21421,26908
33268,21454,27046
33160,21439,26975
33180,21402,27031
33176,21386,26896
33148,21333,27006
33157,21301,26850
33136,21319,26977
33142,21335,26812
33216,21383,26933
33212,21410,26842
33214,21461,26998
33224,21440,26970
33160,21407,26868
33120,21356,26884
33080,21334,26773
33064,21304,26897
33012,21306,26775
33032,21351,26863
33080,21383,26807
33088,21422,26944
33104,21444,26917
33044,21432,26760
32936,21421,26832
32737,21364,26751
32596,21348,26844
32524,21302,26734
32548,21328,26852
32564,21349,26725
32636,21407,26871
32697,21425,26888
32656,21449,26892
32572,21428,26919
32372,21418,26886
32276,21360,26900
32248,21331,26713
32248,21297,26887
32229,21308,26849
32228,21333,26708
32244,21382,26870
32276,21429,26903
32284,21439,26785
32264,21451,26798
32224,21405,26752
32193,21380,26801
32128,21332,26712
32020,21316,26879
31992,21306,26917
32032,21345,26758
32084,21373,26812
32109,21417,26742
32108,21431,26833
32108,21442,26752
32077,21394,26818
32084,21373,26772
32044,21320,26924
32040,21317,26896
32064,21304,26908
32120,21348,26781
32140,21370,26833
32168,21412,26772
32164,21454,26815
32182,21435,26758
32142,21413,26836
32128,21359,26727
32120,21340,26800
32116,21300,26740
32184,21322,26850
32264,21330,26734
32308,21386,26847
32352,21412,26721
32352,21451,26838
32312,21430,26720
32264,21408,26873
32208,21385,26884
32172,21327,26725
32172,21312,26880
32165,21309,26839
32213,21349,26876
32260,21372,26882
32327,21427,26721
32398,21437,26864
32444,21442,26816
32377,21396,26884
32353,21375,26908
32358,21321,26736
32364,21300,26889
32404,21323,26924
32516,21340,26757
32560,21390,26861
32522,21405,26804
32456,21441,26902
32332,21429,26832
32348,21406,26760
32365,21352,26869
32324,21334,26764
32332,21298,26837
32360,21329,26759
32365,21333,26877
32408,21383,26903
32428,21404,26733
32448,21436,26874
32472,21420,26820
32448,21399,26757
32436,21375,26832
32412,21316,26828
32392,21301,26748
32416,21312,26797
32468,21324,26767
32492,21377,26820
32484,21403,26824
32508,21444,26712
32548,21423,26729
32592,21403,26717
32604,21368,26688
32421,21316,26745
32332,21301,26597
32328,21296,26754
32420,21317,26740
32508,21372,26604
32552,21399,26748
32568,21436,26780
32492,21449,26652
32432,21406,26671
32408,21366,26652
32412,21310,26664
32420,21292,26753
32420,21321,26608
32417,21339,26705
32468,21375,26774
32516,21397,26658
32556,21433,26565
32548,21428,26604
32552,21388,26720
32512,21354,26752
32456,21317,26690
32396,21319,26750
32388,21298,26575
32460,21316,26665
32504,21361,26548
32526,21413,26696
32569,21415,26644
32536,21422,26576
32516,21388,26609
32484,21345,26590
32495,21320,26476
32516,21284,26629
32540,21307,26589
32586,21316,26599
32656,21379,26520
32597,21404,26405
32488,21440,26521
32464,21420,26524
32534,21412,26390
32572,21359,26401
32536,21328,26290
32540,21286,26413
32576,21316,26366
32616,21314,26390
32648,21365,26289
32684,21389,26186
32692,21423,26331
32736,21415,26328
32717,21394,26127
32704,21366,26270
32632,21305,26228
32556,21300,26085
32488,21288,26177
32564,21328,26108
32645,21359,26183
32708,21412,26182
32732,21428,26057
32756,21400,26112
32752,21391,26001
32664,21350,26130
32588,21340,25997
32582,21294,26014
32640,21301,25961
32708,21345,25926
32780,21368,25974
32800,21393,25917
32776,21420,25959
32772,21422,25906
32760,21393,25933
32783,21359,25932
32724,21304,25845
32736,21295,25988
32748,21278,25996
32756,21321,25852
32800,21346,25949
32848,21396,25986
32872,21426,25812
32913,21412,25964
32892,21399,25876
32876,21342,25780
32840,21327,25944
32796,21295,25828
32784,21281,25920
32816,21326,25839
32869,21380,25750
32904,21403,25836
32912,21413,25756
32892,21429,25790
32884,21383,25740
32864,21366,25808
32860,21318,25804
32876,21306,25657
32904,21292,25664
32905,21326,25518
32920,21359,25636
32948,21407,25596
32972,21405,25470
32948,21421,25479
32936,21412,25452
32888,21348,25309
32888,21329,25362
32885,21284,25180
32896,21280,25279
32944,21310,25270
33012,21366,25028
33048,21387,25060
33080,21426,25066
33072,21413,25024
33076,21390,24893
33018,21348,24863
33012,21321,24932
33014,21282,24901
33044,21285,24709
33054,21332,24809
33080,21349,24783
33052,21397,24573
33000,21412,24644
32848,21421,24652
32820,21388,24512
32832,21355,24554
32880,21300,24461
32940,21297,24525
32928,21303,24527
32860,21309,24433
32868,21369,24465
32877,21393,24469
32868,21433,24449
32856,21421,24300
32812,21408,24336
32800,21348,24217
32768,21321,24340
32717,21281,24298
32736,21297,24276
32752,21317,24263
32812,21358,24167
32846,21392,24250
32836,21430,24133
32840,21422,24280
32784,21409,24232
32796,21364,24288
32780,21308,24285
32789,21292,24111
32829,21286,24258
32840,21333,24224
32884,21352,24204
32924,21409,24220
32932,21421,24124
32912,21443,24270
32912,21405,24282
32896,21383,24286
32896,21327,24271
32900,21293,24124
32852,21309,24295
32848,21347,24250
32848,21366,24169
32876,21423,24298
32956,21432,24247
32964,21444,24214
32956,21433,24253
32900,21373,24260
32856,21361,24194
32876,21317,24261
32822,21290,24279
32828,21343,24188
32848,21376,24329
32924,21428,24290
33060,21456,24288
33183,21441,24378
33180,21440,24370
32932,21381,24385
32736,21354,24420
32680,21325,24336
32704,21336,24430
32764,21350,24448
32876,21381,24550
32960,21440,24485
33016,21452,24561
32976,21475,24474
32940,21432,24650
32900,21412,24719
32864,21362,24640
32856,21357,24725
32868,21329,24660
32868,21387,24868
32872,21403,24870
32836,21441,24941
32784,21480,24847
32724,21476,25053
32657,21454,25032
32630,21402,25180
32636,21383,25213
32676,21346,25190
32660,21338,25304
32663,21381,25401
32656,21404,25468
32748,21439,25500
32780,21479,25564
32848,21471,25606
32832,21442,25482
32776,21412,25623
32722,21370,25665
32704,21343,25796
32697,21353,25810
32704,21378,25746
32736,21409,25872
32772,21459,25844
32768,21479,25937
32760,21483,25981
32744,21463,25996
32700,21434,26030
32664,21376,26045
32652,21351,26020
32676,21361,26080
32696,21380,25970
32685,21419,26076
32720,21477,25973
32693,21488,26116
32676,21482,25999
32644,21477,26117
32584,21427,26044
32520,21400,26228
32468,21369,26272
32428,21373,26176
32412,21397,26233
32424,21445,26133
32432,21473,26306
32492,21514,26229
32596,21510,26362
32648,21469,26247
32698,21440,26348
32640,21398,26261
32496,21390,26376
32477,21368,26329
32484,21390,26464
32668,21439,26416
32820,21468,26564
32996,21509,26614
33108,21490,26517
33212,21484,26567
33334,21440,26535
33520,21391,26636
33812,21387,26600
34092,21382,26742
34380,21420,26650
34748,21447,26776
35240,21476,26748
35748,21518,26837
36116,21511,26797
36356,21510,27004
36516,21453,26976
36584,21452,27061
36420,21393,27138
36092,21405,27174
35648,21406,27136
35010,21468,27116
34309,21490,27320
33424,21526,27360
32404,21544,27269
31380,21500,27466
30454,21470,27559
30084,21417,27460
30188,21401,27582
30240,21391,27568
30284,21422,27772
30386,21466,27828
30552,21511,27920
30801,21532,28013
31064,21536,27941
31296,21508,28156
31548,21468,28057
31808,21425,28183
32000,21405,28204
32168,21402,28384
32228,21433,28423
32288,21468,28588
32278,21539,28523
32316,21543,28717
32312,21537,28713
32312,21521,28865
32292,21476,28896
32312,21449,29063
32344,21415,29116
32316,21425,29271
32300,21433,29300
32396,21484,29455
32484,21544,29494
32532,21559,29770
32592,21553,29836
32688,21542,29796
32706,21493,29951
32620,21468,30005
32436,21429,30153
32348,21438,30207
32388,21454,30426
32420,21505,30466
32508,21540,30628
32572,21578,30748
32624,21574,30834
32613,21563,30991
32594,21505,30842
32556,21478,31036
32600,21436,31076
32664,21443,31296
32732,21447,31298
32749,21505,31381
32852,21553,31405
32812,21588,31655
32776,21579,31786
32752,21562,31663
32724,21515,31852
32720,21477,32053
32724,21463,31950
32728,21444,32135
32804,21488,32263
32849,21510,32152
32868,21574,32348
32888,21602,32415
32908,21602,32573
32924,21562,32580
32856,21540,32749
32840,21490,32819
32833,21476,32967
32813,21460,33149
32800,21495,33044
32836,21520,33223
32852,21570,33238
32876,21629,33437
32900,21596,33462
32876,21582,33605
32832,21571,33717
32837,21501,33713
32860,21492,33871
32896,21476,33996
32964,21511,34148
32902,21540,33957
32856,21595,34341
32916,21609,34345
32893,21605,34336
32892,21598,34439
32865,21547,34557
32869,21525,34599
32877,21479,34586
32920,21476,34959
32948,21521,34951
32996,21543,35112
33037,21601,34910
33080,21617,35268
33088,21632,35268
33112,21598,35400
33080,21576,35448
33072,21522,35564
33076,21491,35588
33061,21497,35612
33060,21517,35852
